0,1
0.001,98.58190918
0.002,113.25
0.003,61.35992432
0.004,-11
0.005,-64.03582764
0.006,-76.62207031
0.007,-52.64630127
0.008,-13
0.009,17.14562988
0.01,24.23431396
0.011,9.326843262
0.012,-15
0.013,-34.75067139
0.014,-39.85064697
0.015,-30.32781982
0.016,-14
0.017,-2.003601074
0.018,0.245117188
0.019,-6.613586426
0.02,-17
0.021,-25.6385498
0.022,-28.06060791
0.023,-24.40692139
0.024,-18
0.025,-14.03240967
0.026,-13.92431641
0.027,-16.78210449
0.028,-20
0.029,-22.3371582
0.03,-22.04986572
0.031,-19.47387695
0.032,-16
0.033,-14.28894043
0.034,-14.23327637
0.035,-15.15325928
0.036,-16
0.037,-17.30944824
0.038,-18.25488281
0.039,-18.79467773
0.04,-19
0.041,-20.61340332
0.042,-21.50305176
0.043,-21.31762695
0.044,-20
0.045,-19.54888916
0.046,-18.45245361
0.047,-17.11505127
0.048,-16
0.049,-17.09393311
0.05,-18.29034424
0.051,-19.05541992
0.052,-19
0.053,-19.73901367
0.054,-19.45050049
0.055,-18.375
0.056,-17
0.057,-17.5
0.058,-18.02935791
0.059,-18.28649902
0.06,-18
0.061,-18.76177979
0.062,-18.59710693
0.063,-17.55670166
0.064,-16
0.065,-16.11083984
0.066,-16.19238281
0.067,-16.17364502
0.068,-16
0.069,-17.37023926
0.07,-18.24511719
0.071,-18.44354248
0.072,-18
0.073,-18.78967285
0.074,-18.91882324
0.075,-18.293396
0.076,-17
0.077,-16.987854
0.078,-16.46185303
0.079,-15.42700195
0.08,-14
0.081,-14.05010986
0.082,-13.62341309
0.083,-12.57556152
0.084,-11
0.085,-10.91766357
0.086,-10.65344238
0.087,-10.30548096
0.088,-10
0.089,-11.49200439
0.09,-12.58666992
0.091,-12.8270874
0.092,-12
0.093,-11.92181396
0.094,-10.86877441
0.095,-9.084777832
0.096,-7
0.097,-6.751831055
0.098,-6.489196777
0.099,-5.966918945
0.1,-5
0.101,-5.258666992
0.102,-4.786682129
0.103,-3.601135254
0.104,-2
0.105,-2.116271973
0.106,-2.215270996
0.107,-2.205627441
0.108,-2
0.109,-3.238830566
0.11,-3.781616211
0.111,-3.363952637
0.112,-2
0.113,-1.646057129
0.114,-0.583007813
0.115,1.061218262
0.116,3
0.117,3.169189453
0.118,3.353515625
0.119,3.628601074
0.12,4
0.121,2.71862793
0.122,1.837402344
0.123,1.589111328
0.124,2
0.125,1.211853027
0.126,1.109069824
0.127,1.7421875
0.128,3
0.129,2.95123291
0.13,3.451416016
0.131,4.524169922
0.132,6
0.133,5.857543945
0.134,5.845581055
0.135,5.933410645
0.136,6
0.137,4.197509766
0.138,2.575866699
0.139,1.449462891
0.14,1
0.141,-0.458557129
0.142,-0.921936035
0.143,-0.34967041
0.144,1
0.145,0.957885742
0.146,1.164855957
0.147,1.539367676
0.148,2
0.149,0.800231934
0.15,0.080444336
0.151,0.140625
0.152,1
0.153,0.686401367
0.154,0.882507324
0.155,1.406738281
0.156,2
0.157,0.75189209
0.158,-0.236633301
0.159,-0.566162109
0.16,0
0.161,-0.272094727
0.162,0.477600098
0.163,2.059509277
0.164,4
0.165,4.01763916
0.166,3.794128418
0.167,3.409729004
0.168,3
0.169,1.00769043
0.17,-0.314819336
0.171,-0.648254395
0.172,0
0.173,-0.366088867
0.174,-0.038208008
0.175,0.835205078
0.176,2
0.177,1.477600098
0.178,1.208740234
0.179,1.372009277
0.18,2
0.181,1.262451172
0.182,1.055297852
0.183,1.371582031
0.184,2
0.185,0.920715332
0.186,-0.018432617
0.187,-0.685913086
0.188,-1
0.189,-2.631591797
0.19,-3.447631836
0.191,-3.217773438
0.192,-2
0.193,-1.810668945
0.194,-0.959228516
0.195,0.398010254
0.196,2
0.197,1.866943359
0.198,1.918334961
0.199,2.302368164
0.2,3
0.201,2.123291016
0.202,1.515075684
0.203,1.177856445
0.204,1
0.205,-0.851806641
0.206,-2.305236816
0.207,-3.059814453
0.208,-3
0.209,-3.93371582
0.21,-3.996826172
0.211,-3.262023926
0.212,-2
0.213,-2.262573242
0.214,-2.219177246
0.215,-1.784301758
0.216,-1
0.217,-1.744506836
0.218,-2.15057373
0.219,-2.199279785
0.22,-2
0.221,-3.394897461
0.222,-4.339599609
0.223,-4.566589355
0.224,-4
0.225,-4.484741211
0.226,-4.20892334
0.227,-3.284362793
0.228,-2
0.229,-2.391967773
0.23,-2.594177246
0.231,-2.467041016
0.232,-2
0.233,-3.032592773
0.234,-3.692993164
0.235,-3.972473145
0.236,-4
0.237,-5.63092041
0.238,-6.828918457
0.239,-7.31817627
0.24,-7
0.241,-7.686462402
0.242,-7.514831543
0.243,-6.540893555
0.244,-5
0.245,-4.89831543
0.246,-4.377746582
0.247,-3.370910645
0.248,-2
0.249,-2.270385742
0.25,-2.467651367
0.251,-2.672546387
0.252,-3
0.253,-5.183288574
0.254,-7.005859375
0.255,-8.011352539
0.256,-8
0.257,-8.804016113
0.258,-8.711120605
0.259,-7.977050781
0.26,-7
0.261,-7.822509766
0.262,-8.46484375
0.263,-8.591430664
0.264,-8
0.265,-8.436218262
0.266,-8.082763672
0.267,-7.131652832
0.268,-6
0.269,-6.824584961
0.27,-7.758728027
0.271,-8.557922363
0.272,-9
0.273,-10.6630249
0.274,-11.43707275
0.275,-11.17260742
0.276,-10
0.277,-9.924621582
0.278,-9.179138184
0.279,-7.803222656
0.28,-6
0.281,-5.808959961
0.282,-5.514343262
0.283,-5.193115234
0.284,-5
0.285,-6.765686035
0.286,-8.40625
0.287,-9.556152344
0.288,-10
0.289,-11.41497803
0.29,-11.84094238
0.291,-11.28234863
0.292,-10
0.293,-10.08764648
0.294,-9.793395996
0.295,-9.085449219
0.296,-8
0.297,-8.337890625
0.298,-8.13659668
0.299,-7.30682373
0.3,-6
0.301,-6.242980957
0.302,-6.297058105
0.303,-6.186828613
0.304,-6
0.305,-7.524475098
0.306,-8.691711426
0.307,-9.214172363
0.308,-9
0.309,-9.86126709
0.31,-9.928283691
0.311,-9.231384277
0.312,-8
0.313,-8.270507813
0.314,-8.22857666
0.315,-7.796813965
0.316,-7
0.317,-7.667419434
0.318,-7.8828125
0.319,-7.602539063
0.32,-7
0.321,-8.083251953
0.322,-9.022521973
0.323,-9.693847656
0.324,-10
0.325,-11.57287598
0.326,-12.22406006
0.327,-11.67755127
0.328,-10
0.329,-9.293762207
0.33,-8.01763916
0.331,-6.47064209
0.332,-5
0.333,-5.575500488
0.334,-6.151306152
0.335,-6.360351563
0.336,-6
0.337,-6.83026123
0.338,-7.002197266
0.339,-6.62689209
0.34,-6
0.341,-7.140441895
0.342,-8.067016602
0.343,-8.43927002
0.344,-8
0.345,-8.389770508
0.346,-7.612121582
0.347,-5.697937012
0.348,-3
0.349,-1.771484375
0.35,-0.42755127
0.351,0.893005371
0.352,2
0.353,0.970214844
0.354,-0.214660645
0.355,-1.280761719
0.356,-2
0.357,-3.901733398
0.358,-4.697143555
0.359,-4.043273926
0.36,-2
0.361,-0.75579834
0.362,1.113220215
0.363,3.174072266
0.364,5
0.365,4.624023438
0.366,4.199890137
0.367,4.228637695
0.368,5
0.369,4.730041504
0.37,5.165344238
0.371,6.054138184
0.372,7
0.373,5.962280273
0.374,5.007995605
0.375,4.584838867
0.376,5
0.377,4.540710449
0.378,5.05480957
0.379,6.347045898
0.38,8
0.381,7.868530273
0.382,7.841064453
0.383,8.169494629
0.384,9
0.385,8.544799805
0.386,8.655151367
0.387,9.229492188
0.388,10
0.389,8.986755371
0.39,8.247436523
0.391,8.170593262
0.392,9
0.393,8.984619141
0.394,9.979919434
0.395,11.79669189
0.396,14
0.397,14.37664795
0.398,14.7331543
0.399,15.23675537
0.4,16
0.401,15.27020264
0.402,15.03253174
0.403,15.33148193
0.404,16
0.405,15.05761719
0.406,14.45880127
0.407,14.41210938
0.408,15
0.409,14.42407227
0.41,14.61071777
0.411,15.54736328
0.412,17
0.413,16.90301514
0.414,17.05310059
0.415,17.45922852
0.416,18
0.417,16.74157715
0.418,15.58306885
0.419,14.64874268
0.42,14
0.421,11.98059082
0.422,10.80218506
0.423,10.79998779
0.424,12
0.425,12.39575195
0.426,13.59259033
0.427,15.26885986
0.428,17
0.429,16.73016357
0.43,16.440979
0.431,16.45751953
0.432,17
0.433,16.39453125
0.434,16.59899902
0.435,17.5680542
0.436,19
0.437,18.78826904
0.438,18.70837402
0.439,18.79736328
0.44,19
0.441,17.46032715
0.442,16.10345459
0.443,14.98260498
0.444,14
0.445,11.30194092
0.446,8.924743652
0.447,7.123413086
0.448,6
0.449,3.788513184
0.45,2.426940918
0.451,1.90802002
0.452,2
0.453,0.657592773
0.454,-0.306030273
0.455,-0.843933105
0.456,-1
0.457,-2.596008301
0.458,-3.652709961
0.459,-4.080200195
0.46,-4
0.461,-5.373962402
0.462,-6.352661133
0.463,-6.88104248
0.464,-7
0.465,-8.506469727
0.466,-9.386962891
0.467,-9.511230469
0.468,-9
0.469,-9.881164551
0.47,-10.43414307
0.471,-10.75756836
0.472,-11
0.473,-12.96313477
0.474,-14.49230957
0.475,-15.22015381
0.476,-15
0.477,-15.65814209
0.478,-15.3916626
0.479,-14.38244629
0.48,-13
0.481,-13.33935547
0.482,-13.53662109
0.483,-13.44085693
0.484,-13
0.485,-13.99456787
0.486,-14.48370361
0.487,-14.43701172
0.488,-14
0.489,-15.07147217
0.49,-15.69018555
0.491,-15.67028809
0.492,-15
0.493,-15.54034424
0.494,-15.48419189
0.495,-14.90136719
0.496,-14
0.497,-14.67944336
0.498,-14.99932861
0.499,-14.77386475
0.5,-14
0.501,-14.5355835
0.502,-14.62841797
0.503,-14.38018799
0.504,-14
0.505,-15.31237793
0.506,-16.28601074
0.507,-16.57678223
0.508,-16
0.509,-16.23571777
0.51,-15.48516846
0.511,-13.9274292
0.512,-12
0.513,-11.87420654
0.514,-11.87939453
0.515,-11.94702148
0.516,-12
0.517,-13.66918945
0.518,-14.83795166
0.519,-15.26867676
0.52,-15
0.521,-16.0267334
0.522,-16.53137207
0.523,-16.49206543
0.524,-16
0.525,-17.05328369
0.526,-17.63293457
0.527,-17.58544922
0.528,-17
0.529,-18.12805176
0.53,-19.13238525
0.531,-20.04431152
0.532,-21
0.533,-24.15863037
0.534,-27.31072998
0.535,-30.02313232
0.536,-32
0.537,-35.14123535
0.538,-37.32281494
0.539,-38.50830078
0.54,-39
0.541,-41.18994141
0.542,-43.42181396
0.543,-45.71948242
0.544,-48
0.545,-51.76806641
0.546,-54.56933594
0.547,-55.75915527
0.548,-55
0.549,-53.97033691
0.55,-50.93395996
0.551,-46.12976074
0.552,-40
0.553,-34.63922119
0.554,-28.28607178
0.555,-20.78161621
0.556,-12
0.557,-3.545166016
0.558,6.660705566
0.559,18.840271
0.56,33
0.561,47.32409668
0.562,63.66540527
0.563,81.99914551
0.564,102
0.565,121.3695068
0.566,141.3363037
0.567,161.1881104
0.568,180
0.569,195.1206055
0.57,207.758667
0.571,217.515625
0.572,224
0.573,225.1468506
0.574,222.6311035
0.575,216.3356934
0.576,206
0.577,189.7001953
0.578,169.4549561
0.579,145.9074707
0.58,120
0.581,91.29748535
0.582,63.24249268
0.583,37.44274902
0.584,15
0.585,-5.265686035
0.586,-21.38916016
0.587,-33.50006104
0.588,-42
0.589,-48.97802734
0.59,-52.74914551
0.591,-53.32183838
0.592,-51
0.593,-48.14483643
0.594,-43.75762939
0.595,-38.73516846
0.596,-34
0.597,-31.87677002
0.598,-30.48474121
0.599,-29.34777832
0.6,-28
0.601,-27.9085083
0.602,-27.0526123
0.603,-25.59228516
0.604,-24
0.605,-24.50653076
0.606,-25.16687012
0.607,-25.74151611
0.608,-26
0.609,-27.59570313
0.61,-28.24450684
0.611,-27.94671631
0.612,-27
0.613,-27.59057617
0.614,-27.62365723
0.615,-27.05993652
0.616,-26
0.617,-26.45355225
0.618,-26.34674072
0.619,-25.77886963
0.62,-25
0.621,-25.98535156
0.622,-26.58807373
0.623,-26.59173584
0.624,-26
0.625,-26.73309326
0.626,-27.04528809
0.627,-27.06536865
0.628,-27
0.629,-28.64221191
0.63,-29.92431641
0.631,-30.43829346
0.632,-30
0.633,-30.39038086
0.634,-29.98553467
0.635,-29.05230713
0.636,-28
0.637,-28.83465576
0.638,-29.65270996
0.639,-30.12005615
0.64,-30
0.641,-30.91900635
0.642,-30.98956299
0.643,-30.26000977
0.644,-29
0.645,-29.20349121
0.646,-29.03198242
0.647,-28.31256104
0.648,-27
0.649,-26.89916992
0.65,-26.24908447
0.651,-25.17932129
0.652,-24
0.653,-24.70281982
0.654,-25.4286499
0.655,-25.9251709
0.656,-26
0.657,-27.24243164
0.658,-27.65667725
0.659,-27.17132568
0.66,-26
0.661,-26.18804932
0.662,-26.06213379
0.663,-25.64141846
0.664,-25
0.665,-25.90911865
0.666,-26.42687988
0.667,-26.42437744
0.668,-26
0.669,-27.08581543
0.67,-27.94573975
0.671,-28.56994629
0.672,-29
0.673,-30.92230225
0.674,-32.24572754
0.675,-32.63647461
0.676,-32
0.677,-32.16595459
0.678,-31.42285156
0.679,-29.9286499
0.68,-28
0.681,-27.64581299
0.682,-27.07269287
0.683,-26.17645264
0.684,-25
0.685,-25.41101074
0.686,-25.66589355
0.687,-25.81494141
0.688,-26
0.689,-27.99523926
0.69,-29.72546387
0.691,-30.79754639
0.692,-31
0.693,-32.03540039
0.694,-32.09521484
0.695,-31.30505371
0.696,-30
0.697,-30.22595215
0.698,-30.20220947
0.699,-29.80090332
0.7,-29
0.701,-29.5871582
0.702,-29.74072266
0.703,-29.48461914
0.704,-29
0.705,-30.16436768
0.706,-31.03649902
0.707,-31.35644531
0.708,-31
0.709,-31.684021
0.71,-31.53674316
0.711,-30.56890869
0.712,-29
0.713,-28.81329346
0.714,-28.24676514
0.715,-27.26867676
0.716,-26
0.717,-26.3614502
0.718,-26.62426758
0.719,-26.8079834
0.72,-27
0.721,-28.9185791
0.722,-30.45684814
0.723,-31.21557617
0.724,-31
0.725,-31.54217529
0.726,-31.07202148
0.727,-29.76043701
0.728,-28
0.729,-27.90997314
0.73,-27.76989746
0.731,-27.48266602
0.732,-27
0.733,-28.01794434
0.734,-28.57598877
0.735,-28.54504395
0.736,-28
0.737,-28.80169678
0.738,-29.10571289
0.739,-28.8182373
0.74,-28
0.741,-28.50415039
0.742,-28.51379395
0.743,-27.98474121
0.744,-27
0.745,-27.37213135
0.746,-27.19671631
0.747,-26.36437988
0.748,-25
0.749,-25.09875488
0.75,-25.03924561
0.751,-24.95050049
0.752,-25
0.753,-26.94244385
0.754,-28.67315674
0.755,-29.76873779
0.756,-30
0.757,-31.05950928
0.758,-31.1362915
0.759,-30.34442139
0.76,-29
0.761,-29.12670898
0.762,-28.91998291
0.763,-28.22674561
0.764,-27
0.765,-27.0078125
0.766,-26.4354248
0.767,-25.34368896
0.768,-24
0.769,-24.41082764
0.77,-24.79290771
0.771,-25.01281738
0.772,-25
0.773,-26.42633057
0.774,-27.29840088
0.775,-27.46478271
0.776,-27
0.777,-27.79632568
0.778,-28.06195068
0.779,-27.76287842
0.78,-27
0.781,-27.63433838
0.782,-27.84222412
0.783,-27.58728027
0.784,-27
0.785,-27.97271729
0.786,-28.68225098
0.787,-29.02642822
0.788,-29
0.789,-30.31829834
0.79,-31.0010376
0.791,-30.87664795
0.792,-30
0.793,-30.27325439
0.794,-29.97064209
0.795,-29.15374756
0.796,-28
0.797,-28.37554932
0.798,-28.40032959
0.799,-27.93017578
0.8,-27
0.801,-27.46459961
0.802,-27.57568359
0.803,-27.37182617
0.804,-27
0.805,-28.25939941
0.806,-29.17004395
0.807,-29.45349121
0.808,-29
0.809,-29.55584717
0.81,-29.3147583
0.811,-28.36395264
0.812,-27
0.813,-27.2520752
0.814,-27.37817383
0.815,-27.29772949
0.816,-27
0.817,-28.19976807
0.818,-28.96569824
0.819,-29.19519043
0.82,-29
0.821,-30.27923584
0.822,-31.24023438
0.823,-31.80859375
0.824,-32
0.825,-33.54248047
0.826,-34.46655273
0.827,-34.60266113
0.828,-34
0.829,-34.54571533
0.83,-34.50335693
0.831,-33.92523193
0.832,-33
0.833,-33.64007568
0.834,-34.03405762
0.835,-34.12017822
0.836,-34
0.837,-35.55773926
0.838,-36.97631836
0.839,-38.14562988
0.84,-39
0.841,-41.13067627
0.842,-42.36206055
0.843,-42.33331299
0.844,-41
0.845,-40.33856201
0.846,-38.83813477
0.847,-36.88787842
0.848,-35
0.849,-35.29168701
0.85,-35.91729736
0.851,-36.57568359
0.852,-37
0.853,-38.72229004
0.854,-39.67852783
0.855,-39.72894287
0.856,-39
0.857,-39.44677734
0.858,-39.27661133
0.859,-38.43322754
0.86,-37
0.861,-36.87908936
0.862,-36.2956543
0.863,-35.2800293
0.864,-34
0.865,-34.34973145
0.866,-34.41223145
0.867,-33.97998047
0.868,-33
0.869,-33.27514648
0.87,-32.98907471
0.871,-32.16680908
0.872,-31
0.873,-31.41497803
0.874,-31.51531982
0.875,-31.07958984
0.876,-30
0.877,-29.99719238
0.878,-29.15307617
0.879,-27.42285156
0.88,-25
0.881,-23.91534424
0.882,-22.49060059
0.883,-20.78912354
0.884,-19
0.885,-19.06896973
0.886,-19.17730713
0.887,-19.18310547
0.888,-19
0.889,-20.25830078
0.89,-20.83209229
0.891,-20.41778564
0.892,-19
0.893,-18.53735352
0.894,-17.40405273
0.895,-15.7946167
0.896,-14
0.897,-13.96777344
0.898,-13.77185059
0.899,-13.14996338
0.9,-12
0.901,-12.12243652
0.902,-11.73858643
0.903,-10.94311523
0.904,-10
0.905,-10.88531494
0.906,-11.69226074
0.907,-12.13409424
0.908,-12
0.909,-12.90979004
0.91,-12.8684082
0.911,-11.81726074
0.912,-10
0.913,-9.544311523
0.914,-8.834350586
0.915,-7.948059082
0.916,-7
0.917,-7.799804688
0.918,-8.352600098
0.919,-8.430969238
0.92,-8
0.921,-8.88458252
0.922,-9.211547852
0.923,-8.900024414
0.924,-8
0.925,-8.337463379
0.926,-7.973144531
0.927,-6.808532715
0.928,-5
0.929,-4.622131348
0.93,-4.060119629
0.931,-3.462463379
0.932,-3
0.933,-4.453918457
0.934,-5.67956543
0.935,-6.257446289
0.936,-6
0.937,-6.709899902
0.938,-6.640258789
0.939,-5.966491699
0.94,-5
0.941,-5.710449219
0.942,-6.114990234
0.943,-5.916809082
0.944,-5
0.945,-5.208435059
0.946,-4.803771973
0.947,-3.966369629
0.948,-3
0.949,-3.849060059
0.95,-4.490783691
0.951,-4.587524414
0.952,-4
0.953,-4.573364258
0.954,-4.604309082
0.955,-4.309753418
0.956,-4
0.957,-5.573486328
0.958,-6.888122559
0.959,-7.45690918
0.96,-7
0.961,-7.286804199
0.962,-6.626281738
0.963,-5.358703613
0.964,-4
0.965,-4.684997559
0.966,-5.475830078
0.967,-6.004638672
0.968,-6
0.969,-7.134338379
0.97,-7.546691895
0.971,-7.38671875
0.972,-7
0.973,-8.401123047
0.974,-9.59161377
0.975,-10.20404053
0.976,-10
0.977,-10.69360352
0.978,-10.44885254
0.979,-9.428649902
0.98,-8
0.981,-8.23626709
0.982,-8.254333496
0.983,-7.855895996
0.984,-7
0.985,-7.572692871
0.986,-7.833496094
0.987,-7.912841797
0.988,-8
0.989,-9.869812012
0.99,-11.28771973
0.991,-11.74230957
0.992,-11
0.993,-10.93103027
0.994,-9.946777344
0.995,-8.461914063
0.996,-7
0.997,-7.631652832
0.998,-8.30291748
0.999,-8.536132813
1,-8
1.001,-8.38885498
1.002,-7.945800781
1.003,-6.978271484
1.004,-6
1.005,-7.151977539
1.006,-8.480834961
1.007,-9.559692383
1.008,-10
1.009,-11.31585693
1.01,-11.49291992
1.011,-10.59399414
1.012,-9
1.013,-8.896789551
1.014,-8.567016602
1.015,-7.93951416
1.016,-7
1.017,-7.54309082
1.018,-7.685058594
1.019,-7.438354492
1.02,-7
1.021,-8.305603027
1.022,-9.400695801
1.023,-10.01831055
1.024,-10
1.025,-11.03820801
1.026,-11.17999268
1.027,-10.41870117
1.028,-9
1.029,-8.993774414
1.03,-8.654968262
1.031,-7.966674805
1.032,-7
1.033,-7.594116211
1.034,-7.828369141
1.035,-7.604858398
1.036,-7
1.037,-7.896850586
1.038,-8.402099609
1.039,-8.418334961
1.04,-8
1.041,-9.009521484
1.042,-9.546569824
1.043,-9.521850586
1.044,-9
1.045,-9.851074219
1.046,-10.16235352
1.047,-9.846130371
1.048,-9
1.049,-9.562011719
1.05,-9.727722168
1.051,-9.497741699
1.052,-9
1.053,-10.11480713
1.054,-10.90411377
1.055,-11.20227051
1.056,-11
1.057,-12.1260376
1.058,-12.67736816
1.059,-12.59710693
1.06,-12
1.061,-12.79956055
1.062,-13.10693359
1.063,-12.82226563
1.064,-12
1.065,-12.51812744
1.066,-12.51654053
1.067,-11.96514893
1.068,-11
1.069,-11.55310059
1.07,-11.76464844
1.071,-11.55828857
1.072,-11
1.073,-11.95489502
1.074,-12.50488281
1.075,-12.52075195
1.076,-12
1.077,-12.72131348
1.078,-12.68579102
1.079,-11.74615479
1.08,-10
1.081,-9.463623047
1.082,-8.475097656
1.083,-7.219665527
1.084,-6
1.085,-6.809936523
1.086,-7.732543945
1.087,-8.520324707
1.088,-9
1.089,-10.79296875
1.09,-11.80810547
1.091,-11.85461426
1.092,-11
1.093,-11.20080566
1.094,-10.69641113
1.095,-9.55480957
1.096,-8
1.097,-8.042541504
1.098,-7.893859863
1.099,-7.522705078
1.1,-7
1.101,-8.143432617
1.102,-8.967346191
1.103,-9.266052246
1.104,-9
1.105,-9.973632813
1.106,-10.28710938
1.107,-9.905883789
1.108,-9
1.109,-9.562133789
1.11,-9.783081055
1.111,-9.592529297
1.112,-9
1.113,-9.775085449
1.114,-9.910400391
1.115,-9.271972656
1.116,-8
1.117,-8.16619873
1.118,-8.131591797
1.119,-8.025634766
1.12,-8
1.121,-9.833496094
1.122,-11.35845947
1.123,-12.14819336
1.124,-12
1.125,-12.7088623
1.126,-12.47381592
1.127,-11.45495605
1.128,-10
1.129,-10.19390869
1.13,-10.18267822
1.131,-9.800537109
1.132,-9
1.133,-9.610778809
1.134,-9.771057129
1.135,-9.505737305
1.136,-9
1.137,-10.18682861
1.138,-11.07495117
1.139,-11.39025879
1.14,-11
1.141,-11.68005371
1.142,-11.52154541
1.143,-10.54937744
1.144,-9
1.145,-8.917663574
1.146,-8.450744629
1.147,-7.477600098
1.148,-6
1.149,-5.89239502
1.15,-5.297546387
1.151,-4.25592041
1.152,-3
1.153,-3.559753418
1.154,-4.044006348
1.155,-4.243286133
1.156,-4
1.157,-4.965148926
1.158,-5.01776123
1.159,-3.981445313
1.16,-2
1.161,-1.203063965
1.162,0.026428223
1.163,1.506225586
1.164,3
1.165,2.578430176
1.166,2.270996094
1.167,2.370910645
1.168,3
1.169,2.350708008
1.17,2.322570801
1.171,2.924133301
1.172,4
1.173,3.614196777
1.174,3.723999023
1.175,4.517211914
1.176,6
1.177,6.251831055
1.178,7.073120117
1.179,8.39239502
1.18,10
1.181,9.93157959
1.182,10.14105225
1.183,10.82568359
1.184,12
1.185,11.74768066
1.186,11.87469482
1.187,12.3381958
1.188,13
1.189,12.01452637
1.19,11.49499512
1.191,11.78662109
1.192,13
1.193,13.21337891
1.194,14.13867188
1.195,15.53118896
1.196,17
1.197,16.45367432
1.198,15.88018799
1.199,15.63824463
1.2,16
1.201,15.29949951
1.202,15.50836182
1.203,16.5411377
1.204,18
1.205,17.6272583
1.206,17.11737061
1.207,16.53668213
1.208,16
1.209,13.92047119
1.21,12.55761719
1.211,12.24682617
1.212,13
1.213,12.81585693
1.214,13.39544678
1.215,14.55834961
1.216,16
1.217,15.67669678
1.218,15.48486328
1.219,15.57922363
1.22,16
1.221,14.9486084
1.222,14.40570068
1.223,14.45782471
1.224,15
1.225,14.10583496
1.226,13.7208252
1.227,14.00531006
1.228,15
1.229,14.91607666
1.23,15.73620605
1.231,17.50506592
1.232,20
1.233,21.09222412
1.234,22.42504883
1.235,23.81799316
1.236,25
1.237,23.98571777
1.238,22.71148682
1.239,21.35687256
1.24,20
1.241,16.93157959
1.242,14.26422119
1.243,12.2590332
1.244,11
1.245,8.723632813
1.246,7.443481445
1.247,7.254333496
1.248,8
1.249,7.6171875
1.25,7.790283203
1.251,8.34564209
1.252,9
1.253,7.764709473
1.254,6.573059082
1.255,5.622009277
1.256,5
1.257,2.975952148
1.258,1.583312988
1.259,0.951171875
1.26,1
1.261,-0.188903809
1.262,-0.736877441
1.263,-0.620910645
1.264,0
1.265,-0.876464844
1.266,-1.456359863
1.267,-1.77935791
1.268,-2
1.269,-4.009765625
1.27,-5.80847168
1.271,-7.170471191
1.272,-8
1.273,-10.03033447
1.274,-11.23565674
1.275,-11.51531982
1.276,-11
1.277,-11.68103027
1.278,-11.72503662
1.279,-11.12689209
1.28,-10
1.281,-10.24627686
1.282,-9.95715332
1.283,-9.130004883
1.284,-8
1.285,-8.66217041
1.286,-9.391845703
1.287,-10.18286133
1.288,-11
1.289,-13.42706299
1.29,-15.14154053
1.291,-15.69592285
1.292,-15
1.293,-15.05847168
1.294,-14.31860352
1.295,-13.15588379
1.296,-12
1.297,-12.83123779
1.298,-13.54766846
1.299,-13.69555664
1.3,-13
1.301,-13.19085693
1.302,-12.52258301
1.303,-11.29217529
1.304,-10
1.305,-10.77758789
1.306,-11.74328613
1.307,-12.57781982
1.308,-13
1.309,-14.5546875
1.31,-15.21832275
1.311,-14.95800781
1.312,-14
1.313,-14.3237915
1.314,-14.12469482
1.315,-13.32427979
1.316,-12
1.317,-12.05078125
1.318,-11.79309082
1.319,-11.36877441
1.32,-11
1.321,-12.49859619
1.322,-13.75585938
1.323,-14.33782959
1.324,-14
1.325,-14.49005127
1.326,-13.99530029
1.327,-12.69915771
1.328,-11
1.329,-11.08007813
1.33,-11.06573486
1.331,-10.74182129
1.332,-10
1.333,-10.76251221
1.334,-11.105896
1.335,-11.0880127
1.336,-11
1.337,-13.15258789
1.338,-15.55889893
1.339,-17.92498779
1.34,-20
1.341,-23.6461792
1.342,-26.53314209
1.343,-28.32910156
1.344,-29
1.345,-30.81756592
1.346,-31.8482666
1.347,-32.14526367
1.348,-32
1.349,-33.93371582
1.35,-36.12280273
1.351,-38.51300049
1.352,-41
1.353,-45.38311768
1.354,-49.02471924
1.355,-51.09417725
1.356,-51
1.357,-50.43713379
1.358,-47.30712891
1.359,-41.68200684
1.36,-34
1.361,-26.78985596
1.362,-18.45654297
1.363,-9.139038086
1.364,1
1.365,10.06066895
1.366,19.95819092
1.367,30.8805542
1.368,43
1.369,54.88989258
1.37,68.86572266
1.371,85.29614258
1.372,104
1.373,122.527832
1.374,141.7102051
1.375,160.4985352
1.376,178
1.377,192.1192627
1.378,205.0228271
1.379,217.2685547
1.38,229
1.381,238.0644531
1.382,245.663208
1.383,251.3137207
1.384,255
1.385,255.7219238
1.386,256.5919189
1.387,258.5167236
1.388,261
1.389,260.2950439
1.39,255.5684814
1.391,244.8336182
1.392,228
1.393,205.8768311
1.394,184.9177246
1.395,169.8538818
1.396,163
1.397,161.1270752
1.398,161.0614014
1.399,156.2020264
1.4,141
1.401,111.8652344
1.402,73.58825684
1.403,32.80639648
1.404,-3
1.405,-30.06085205
1.406,-44.66229248
1.407,-48.80932617
1.408,-47
1.409,-45.57592773
1.41,-45.18017578
1.411,-45.84899902
1.412,-46
1.413,-45.5859375
1.414,-41.65057373
1.415,-34.80633545
1.416,-27
1.417,-22.20422363
1.418,-19.47033691
1.419,-18.70019531
1.42,-19
1.421,-21.09613037
1.422,-21.93682861
1.423,-21.36895752
1.424,-20
1.425,-20.47991943
1.426,-20.91601563
1.427,-21.17468262
1.428,-21
1.429,-22.03393555
1.43,-21.88964844
1.431,-20.70605469
1.432,-19
1.433,-19.16210938
1.434,-19.20953369
1.435,-19.13226318
1.436,-19
1.437,-20.73175049
1.438,-22.19177246
1.439,-23.28527832
1.44,-24
1.441,-26.04846191
1.442,-27.03448486
1.443,-26.65673828
1.444,-25
1.445,-24.20233154
1.446,-22.83135986
1.447,-21.29455566
1.448,-20
1.449,-20.83892822
1.45,-21.74182129
1.451,-22.22412109
1.452,-22
1.453,-22.77349854
1.454,-22.85314941
1.455,-22.47094727
1.456,-22
1.457,-23.39953613
1.458,-24.64855957
1.459,-25.2925415
1.46,-25
1.461,-25.39123535
1.462,-24.64825439
1.463,-23.00994873
1.464,-21
1.465,-20.86523438
1.466,-20.92089844
1.467,-21.02056885
1.468,-21
1.469,-22.44030762
1.47,-23.29101563
1.471,-23.4286499
1.472,-23
1.473,-23.96911621
1.474,-24.52325439
1.475,-24.54498291
1.476,-24
1.477,-24.62969971
1.478,-24.50024414
1.479,-23.55908203
1.48,-22
1.481,-21.85131836
1.482,-21.42474365
1.483,-20.76489258
1.484,-20
1.485,-20.96496582
1.486,-21.72399902
1.487,-22.08410645
1.488,-22
1.489,-23.22857666
1.49,-23.83972168
1.491,-23.73223877
1.492,-23
1.493,-23.54760742
1.494,-23.56335449
1.495,-23.01171875
1.496,-22
1.497,-22.40966797
1.498,-22.39556885
1.499,-21.89477539
1.5,-21
1.501,-21.58404541
1.502,-21.80175781
1.503,-21.58099365
1.504,-21
1.505,-21.91534424
1.506,-22.44598389
1.507,-22.47155762
1.508,-22
1.509,-22.80621338
1.51,-22.94848633
1.511,-22.31030273
1.512,-21
1.513,-20.98773193
1.514,-20.57446289
1.515,-19.84759521
1.516,-19
1.517,-19.92041016
1.518,-20.68133545
1.519,-21.06713867
1.52,-21
1.521,-22.21850586
1.522,-22.80773926
1.523,-22.69616699
1.524,-22
1.525,-22.61712646
1.526,-22.69287109
1.527,-22.13330078
1.528,-21
1.529,-21.17205811
1.53,-20.85107422
1.531,-20.06311035
1.532,-19
1.533,-19.60852051
1.534,-20.04956055
1.535,-20.19134521
1.536,-20
1.537,-21.20532227
1.538,-21.83398438
1.539,-21.74249268
1.54,-21
1.541,-21.51196289
1.542,-21.48913574
1.543,-20.93579102
1.544,-20
1.545,-20.58850098
1.546,-20.84283447
1.547,-20.64569092
1.548,-20
1.549,-20.67919922
1.55,-20.75842285
1.551,-20.15081787
1.552,-19
1.553,-19.29821777
1.554,-19.34924316
1.555,-19.20892334
1.556,-19
1.557,-20.50964355
1.558,-21.69177246
1.559,-22.23339844
1.56,-22
1.561,-22.73510742
1.562,-22.58209229
1.563,-21.58294678
1.564,-20
1.565,-19.8815918
1.566,-19.50366211
1.567,-18.85131836
1.568,-18
1.569,-18.77081299
1.57,-19.2520752
1.571,-19.31829834
1.572,-19
1.573,-20.10479736
1.574,-20.70489502
1.575,-20.65887451
1.576,-20
1.577,-20.58465576
1.578,-20.58825684
1.579,-20.00610352
1.58,-19
1.581,-19.49908447
1.582,-19.68579102
1.583,-19.49560547
1.584,-19
1.585,-20.04498291
1.586,-20.7612915
1.587,-21.06164551
1.588,-21
1.589,-22.38299561
1.59,-23.26928711
1.591,-23.48138428
1.592,-23
1.593,-23.61804199
1.594,-23.46575928
1.595,-22.52697754
1.596,-21
1.597,-20.89654541
1.598,-20.49938965
1.599,-19.83129883
1.6,-19
1.601,-19.81958008
1.602,-20.34484863
1.603,-20.40209961
1.604,-20
1.605,-20.97180176
1.606,-21.47393799
1.607,-21.45623779
1.608,-21
1.609,-21.92498779
1.61,-22.29638672
1.611,-21.96899414
1.612,-21
1.613,-21.30474854
1.614,-21.15490723
1.615,-20.6449585
1.616,-20
1.617,-21.13842773
1.618,-22.15142822
1.619,-22.81243896
1.62,-23
1.621,-24.39105225
1.622,-25.02478027
1.623,-24.83355713
1.624,-24
1.625,-24.53668213
1.626,-24.71325684
1.627,-24.5168457
1.628,-24
1.629,-24.92907715
1.63,-25.31518555
1.631,-24.98553467
1.632,-24
1.633,-24.30090332
1.634,-24.16668701
1.635,-23.67199707
1.636,-23
1.637,-24.03991699
1.638,-24.84619141
1.639,-25.19335938
1.64,-25
1.641,-26.0289917
1.642,-26.36871338
1.643,-25.97357178
1.644,-25
1.645,-25.41741943
1.646,-25.40881348
1.647,-24.91217041
1.648,-24
1.649,-24.55822754
1.65,-24.74041748
1.651,-24.51318359
1.652,-24
1.653,-25.10235596
1.654,-25.90643311
1.655,-26.22796631
1.656,-26
1.657,-26.96972656
1.658,-27.16259766
1.659,-26.46655273
1.66,-25
1.661,-24.75085449
1.662,-23.96594238
1.663,-22.66833496
1.664,-21
1.665,-20.87176514
1.666,-20.39038086
1.667,-19.42547607
1.668,-18
1.669,-17.97161865
1.67,-17.4675293
1.671,-16.43579102
1.672,-15
1.673,-15.09686279
1.674,-14.86322021
1.675,-14.171875
1.676,-13
1.677,-13.11767578
1.678,-12.53894043
1.679,-11.12878418
1.68,-9
1.681,-8.179016113
1.682,-6.983581543
1.683,-5.521972656
1.684,-4
1.685,-4.342346191
1.686,-4.59777832
1.687,-4.521972656
1.688,-4
1.689,-4.768920898
1.69,-4.874572754
1.691,-4.237487793
1.692,-3
1.693,-3.151306152
1.694,-2.889160156
1.695,-2.155029297
1.696,-1
1.697,-1.272949219
1.698,-1.059143066
1.699,-0.265380859
1.7,1
1.701,0.772155762
1.702,0.851867676
1.703,1.28125
1.704,2
1.705,1.182861328
1.706,0.81463623
1.707,1.087280273
1.708,2
1.709,1.66796875
1.71,1.923278809
1.711,2.757629395
1.712,4
1.713,3.682739258
1.714,3.68145752
1.715,4.121398926
1.716,5
1.717,4.480651855
1.718,4.4765625
1.719,5.035888672
1.72,6
1.721,5.367614746
1.722,4.956115723
1.723,4.835571289
1.724,5
1.725,3.68145752
1.726,2.957458496
1.727,3.06262207
1.728,4
1.729,3.840759277
1.73,4.371337891
1.731,5.504882813
1.732,7
1.733,6.84197998
1.734,6.901000977
1.735,7.292236328
1.736,8
1.737,7.164855957
1.738,6.704040527
1.739,6.681091309
1.74,7
1.741,5.761291504
1.742,4.930664063
1.743,4.675476074
1.744,5
1.745,4.036743164
1.746,3.701904297
1.747,4.055480957
1.748,5
1.749,4.621337891
1.75,4.833007813
1.751,5.68572998
1.752,7
1.753,6.686767578
1.754,6.45526123
1.755,6.246765137
1.756,6
1.757,4.018432617
1.758,2.585144043
1.759,2.180725098
1.76,3
1.761,3.156616211
1.762,4.315368652
1.763,6.114074707
1.764,8
1.765,7.726257324
1.766,7.127441406
1.767,6.463317871
1.768,6
1.769,4.19519043
1.77,3.211120605
1.771,3.201477051
1.772,4
1.773,3.530090332
1.774,3.54876709
1.775,4.059143066
1.776,5
1.777,4.541137695
1.778,4.683410645
1.779,5.542358398
1.78,7
1.781,7.045715332
1.782,7.450134277
1.783,8.157714844
1.784,9
1.785,8.058898926
1.786,7.301635742
1.787,6.926574707
1.788,7
1.789,5.748718262
1.79,5.156311035
1.791,5.29486084
1.792,6
1.793,5.236328125
1.794,4.80255127
1.795,4.732116699
1.796,5
1.797,3.844177246
1.798,3.358459473
1.799,3.76184082
1.8,5
1.801,5.048278809
1.802,5.563110352
1.803,6.323181152
1.804,7
1.805,5.584777832
1.806,4.071289063
1.807,2.788513184
1.808,2
1.809,0.131958008
1.81,-0.684387207
1.811,-0.323852539
1.812,1
1.813,1.118041992
1.814,1.62689209
1.815,2.334777832
1.816,3
1.817,1.696655273
1.818,0.437744141
1.819,-0.507751465
1.82,-1
1.821,-2.745788574
1.822,-3.706115723
1.823,-3.755249023
1.824,-3
1.825,-3.421447754
1.826,-3.198730469
1.827,-2.34161377
1.828,-1
1.829,-1.129882813
1.83,-0.849853516
1.831,-0.105224609
1.832,1
1.833,0.536132813
1.834,0.378967285
1.835,0.570800781
1.836,1
1.837,-0.246459961
1.838,-1.240600586
1.839,-1.836975098
1.84,-2
1.841,-3.481506348
1.842,-4.224304199
1.843,-4.044799805
1.844,-3
1.845,-3.067810059
1.846,-2.492004395
1.847,-1.385620117
1.848,0
1.849,-0.337646484
1.85,-0.514648438
1.851,-0.40246582
1.852,0
1.853,-1.13458252
1.854,-1.870117188
1.855,-2.128601074
1.856,-2
1.857,-3.369934082
1.858,-4.268371582
1.859,-4.499450684
1.86,-4
1.861,-4.547851563
1.862,-4.1953125
1.863,-2.926757813
1.864,-1
1.865,-0.57421875
1.866,-0.016235352
1.867,0.557128906
1.868,1
1.869,-0.505004883
1.87,-1.860839844
1.871,-2.74017334
1.872,-3
1.873,-4.404968262
1.874,-5.02130127
1.875,-4.827148438
1.876,-4
1.877,-4.533203125
1.878,-4.569824219
1.879,-4.036132813
1.88,-3
1.881,-3.373657227
1.882,-3.299621582
1.883,-2.782531738
1.884,-2
1.885,-2.92956543
1.886,-3.671691895
1.887,-4.057250977
1.888,-4
1.889,-5.22052002
1.89,-5.662231445
1.891,-5.200012207
1.892,-4
1.893,-4.169616699
1.894,-4.018249512
1.895,-3.606323242
1.896,-3
1.897,-3.938415527
1.898,-4.242553711
1.899,-3.593688965
1.9,-2
1.901,-1.543334961
1.902,-0.672485352
1.903,0.291748047
1.904,1
1.905,-0.478088379
1.906,-1.959960938
1.907,-2.918273926
1.908,-3
1.909,-3.888671875
1.91,-3.70111084
1.911,-2.605163574
1.912,-1
1.913,-1.039794922
1.914,-0.84979248
1.915,-0.209472656
1.916,1
1.917,0.968566895
1.918,1.55847168
1.919,2.666992188
1.92,4
1.921,3.510253906
1.922,3.16619873
1.923,3.266052246
1.924,4
1.925,3.62322998
1.926,4.073608398
1.927,5.297241211
1.928,7
1.929,7.066040039
1.93,7.339111328
1.931,7.964416504
1.932,9
1.933,8.638366699
1.934,8.844787598
1.935,9.678894043
1.936,11
1.937,10.82922363
1.938,11.06359863
1.939,11.80670166
1.94,13
1.941,12.69628906
1.942,12.75842285
1.943,13.21905518
1.944,14
1.945,13.24475098
1.946,13.02697754
1.947,13.6015625
1.948,15
1.949,15.26953125
1.95,16.16430664
1.951,17.51690674
1.952,19
1.953,18.52752686
1.954,18.03118896
1.955,17.78186035
1.956,18
1.957,17.04577637
1.958,17.04309082
1.959,18.10498047
1.96,20
1.961,20.50134277
1.962,21.24060059
1.963,22.10620117
1.964,23
1.965,22.14233398
1.966,21.70275879
1.967,21.98687744
1.968,23
1.969,22.706604
1.97,22.76293945
1.971,22.94976807
1.972,23
1.973,21.02600098
1.974,19.22259521
1.975,18.09796143
1.976,18
1.977,17.27441406
1.978,17.85797119
1.979,19.59118652
1.98,22
1.981,22.7644043
1.982,23.52435303
1.983,24.26672363
1.984,25
1.985,24.01141357
1.986,23.42193604
1.987,23.43585205
1.988,24
1.989,23.17016602
1.99,22.83300781
1.991,23.09661865
1.992,24
1.993,23.80584717
1.994,24.58312988
1.995,26.4107666
1.996,29
1.997,30.03588867
1.998,30.94281006
1.999,31.36120605
2,31
2.001,28.06005859
2.002,24.86804199
2.003,22.04492188
2.004,20
2.005,17.09674072
2.006,15.26098633
2.007,14.34906006
2.008,14
2.009,12.12890625
2.01,10.68951416
2.011,9.937561035
2.012,10
2.013,9.055114746
2.014,8.924804688
2.015,9.388793945
2.016,10
2.017,8.573486328
2.018,6.956359863
2.019,5.365234375
2.02,4
2.021,1.255493164
2.022,-0.721801758
2.023,-1.771606445
2.024,-2
2.025,-3.383728027
2.026,-4.032775879
2.027,-3.878845215
2.028,-3
2.029,-3.333740234
2.03,-3.033935547
2.031,-2.172119141
2.032,-1
2.033,-1.561035156
2.034,-1.974365234
2.035,-2.12701416
2.036,-2
2.037,-3.381530762
2.038,-4.229431152
2.039,-4.411437988
2.04,-4
2.041,-4.924133301
2.042,-5.254760742
2.043,-4.920471191
2.044,-4
2.045,-4.398986816
2.046,-4.19519043
2.047,-3.34564209
2.048,-2
2.049,-2.157653809
2.05,-2.0078125
2.051,-1.572631836
2.052,-1
2.053,-2.201660156
2.054,-3.210388184
2.055,-3.833984375
2.056,-4
2.057,-5.453063965
2.058,-6.154602051
2.059,-5.968811035
2.06,-5
2.061,-5.241882324
2.062,-4.927368164
2.063,-4.118530273
2.064,-3
2.065,-3.508605957
2.066,-3.737426758
2.067,-3.559631348
2.068,-3
2.069,-3.902160645
2.07,-4.380126953
2.071,-4.380554199
2.072,-4
2.073,-5.088500977
2.074,-5.700561523
2.075,-5.672729492
2.076,-5
2.077,-5.49395752
2.078,-5.288085938
2.079,-4.388549805
2.08,-3
2.081,-3.10345459
2.082,-2.944091797
2.083,-2.534240723
2.084,-2
2.085,-3.179199219
2.086,-4.160705566
2.087,-4.784606934
2.088,-5
2.089,-6.509277344
2.09,-7.2578125
2.091,-7.060180664
2.092,-6
2.093,-6.129516602
2.094,-5.741455078
2.095,-4.961608887
2.096,-4
2.097,-4.848876953
2.098,-5.440551758
2.099,-5.504272461
2.1,-5
2.101,-6.045593262
2.102,-6.808349609
2.103,-7.385681152
2.104,-8
2.105,-10.85662842
2.106,-13.74523926
2.107,-16.22247314
2.108,-18
2.109,-21.05975342
2.11,-23.26245117
2.111,-24.52325439
2.112,-25
2.113,-26.96606445
2.114,-28.47241211
2.115,-29.44573975
2.116,-30
2.117,-32.28417969
2.118,-34.52178955
2.119,-36.75286865
2.12,-39
2.121,-42.84051514
2.122,-45.79724121
2.123,-47.0579834
2.124,-46
2.125,-44.0010376
2.126,-39.10272217
2.127,-31.54388428
2.128,-22
2.129,-12.99835205
2.13,-3.217163086
2.131,7.132629395
2.132,18
2.133,27.81512451
2.134,38.92303467
2.135,51.88555908
2.136,67
2.137,82.55651855
2.138,100.3452148
2.139,120.0632324
2.14,141
2.141,160.4672852
2.142,179.4733887
2.143,197.251709
2.144,213
2.145,224.2747803
2.146,232.5462646
2.147,237.5743408
2.148,239
2.149,234.6799316
2.15,226.2530518
2.151,213.6838379
2.152,197
2.153,174.75
2.154,149.553833
2.155,122.5661621
2.156,95
2.157,66.35046387
2.158,39.75909424
2.159,16.39703369
2.16,-3
2.161,-19.80328369
2.162,-31.98883057
2.163,-39.57983398
2.164,-43
2.165,-44.65612793
2.166,-43.40002441
2.167,-39.90545654
2.168,-35
2.169,-31.23486328
2.17,-27.29632568
2.171,-23.47186279
2.172,-20
2.173,-18.74786377
2.174,-17.64923096
2.175,-16.43188477
2.176,-15
2.177,-15.15997314
2.178,-14.88562012
2.179,-14.12475586
2.18,-13
2.181,-13.48382568
2.182,-13.48425293
2.183,-12.94317627
2.184,-12
2.185,-12.73516846
2.186,-13.08105469
2.187,-13.10772705
2.188,-13
2.189,-14.7399292
2.19,-15.95684814
2.191,-16.39654541
2.192,-16
2.193,-16.67932129
2.194,-16.29803467
2.195,-14.95446777
2.196,-13
2.197,-12.62664795
2.198,-11.97991943
2.199,-11.07025146
2.2,-10
2.201,-10.62872314
2.202,-11.03485107
2.203,-11.12866211
2.204,-11
2.205,-12.51635742
2.206,-13.80432129
2.207,-14.66912842
2.208,-15
2.209,-16.44592285
2.21,-16.98382568
2.211,-16.45635986
2.212,-15
2.213,-14.68469238
2.214,-13.9286499
2.215,-12.94116211
2.216,-12
2.217,-13.02960205
2.218,-14.05114746
2.219,-14.76660156
2.22,-15
2.221,-16.42144775
2.222,-17.0592041
2.223,-16.85778809
2.224,-16
2.225,-16.48742676
2.226,-16.5199585
2.227,-16.02069092
2.228,-15
2.229,-15.24591064
2.23,-14.82128906
2.231,-13.67230225
2.232,-12
2.233,-11.87554932
2.234,-11.62518311
2.235,-11.30340576
2.236,-11
2.237,-12.47216797
2.238,-13.63134766
2.239,-14.17010498
2.24,-14
2.241,-14.94873047
2.242,-15.20037842
2.243,-14.81329346
2.244,-14
2.245,-14.70941162
2.246,-15.03417969
2.247,-14.8036499
2.248,-14
2.249,-14.46801758
2.25,-14.39025879
2.251,-13.82354736
2.252,-13
2.253,-13.89758301
2.254,-14.64172363
2.255,-15.04370117
2.256,-15
2.257,-16.20349121
2.258,-16.64349365
2.259,-16.20080566
2.26,-15
2.261,-15.02319336
2.262,-14.50494385
2.263,-13.45404053
2.264,-12
2.265,-12.04559326
2.266,-11.73394775
2.267,-11.01263428
2.268,-10
2.269,-10.61853027
2.27,-11.02734375
2.271,-11.14562988
2.272,-11
2.273,-12.37042236
2.274,-13.25665283
2.275,-13.46569824
2.276,-13
2.277,-13.72015381
2.278,-13.77783203
2.279,-13.15716553
2.28,-12
2.281,-12.23022461
2.282,-11.98803711
2.283,-11.20721436
2.284,-10
2.285,-10.31762695
2.286,-10.39154053
2.287,-10.24505615
2.288,-10
2.289,-11.48168945
2.29,-12.65222168
2.291,-13.20605469
2.292,-13
2.293,-13.77593994
2.294,-13.64080811
2.295,-12.62640381
2.296,-11
2.297,-10.84570313
2.298,-10.44250488
2.299,-9.795166016
2.3,-9
2.301,-9.914672852
2.302,-10.62127686
2.303,-10.98358154
2.304,-11
2.305,-12.44854736
2.306,-13.33752441
2.307,-13.50317383
2.308,-13
2.309,-13.76318359
2.31,-14.00335693
2.311,-13.72131348
2.312,-13
2.313,-13.6362915
2.314,-13.59637451
2.315,-12.68591309
2.316,-11
2.317,-10.61773682
2.318,-9.987426758
2.319,-9.362304688
2.32,-9
2.321,-10.70361328
2.322,-12.26184082
2.323,-13.13513184
2.324,-13
2.325,-13.56335449
2.326,-13.0512085
2.327,-11.71099854
2.328,-10
2.329,-10.06384277
2.33,-10.05926514
2.331,-9.754394531
2.332,-9
2.333,-9.522338867
2.334,-9.446105957
2.335,-8.845031738
2.336,-8
2.337,-8.919067383
2.338,-9.702453613
2.339,-10.10998535
2.34,-10
2.341,-11.08190918
2.342,-11.4197998
2.343,-10.99694824
2.344,-10
2.345,-10.38134766
2.346,-10.24914551
2.347,-9.450927734
2.348,-8
2.349,-7.795898438
2.35,-7.102783203
2.351,-6.069702148
2.352,-5
2.353,-5.896484375
2.354,-6.85168457
2.355,-7.610900879
2.356,-8
2.357,-9.663146973
2.358,-10.57946777
2.359,-10.64526367
2.36,-10
2.361,-10.61383057
2.362,-10.6696167
2.363,-10.10931396
2.364,-9
2.365,-9.217224121
2.366,-8.915222168
2.367,-8.10534668
2.368,-7
2.369,-7.62097168
2.37,-8.189025879
2.371,-8.648254395
2.372,-9
2.373,-10.95959473
2.374,-12.43096924
2.375,-13.1317749
2.376,-13
2.377,-13.88311768
2.378,-13.94818115
2.379,-13.2432251
2.38,-12
2.381,-12.24328613
2.382,-12.17095947
2.383,-11.73358154
2.384,-11
2.385,-11.83874512
2.386,-12.33209229
2.387,-12.37121582
2.388,-12
2.389,-13.07611084
2.39,-13.65447998
2.391,-13.60961914
2.392,-13
2.393,-13.74829102
2.394,-13.99981689
2.395,-13.71942139
2.396,-13
2.397,-13.71148682
2.398,-13.87145996
2.399,-13.29663086
2.4,-12
2.401,-11.90893555
2.402,-11.26000977
2.403,-10.18579102
2.404,-9
2.405,-9.784912109
2.406,-10.68829346
2.407,-11.49688721
2.408,-12
2.409,-13.73620605
2.41,-14.45672607
2.411,-13.85876465
2.412,-12
2.413,-10.98376465
2.414,-9.259338379
2.415,-7.13482666
2.416,-5
2.417,-4.906311035
2.418,-4.901428223
2.419,-4.674804688
2.42,-4
2.421,-4.518127441
2.422,-4.192382813
2.423,-2.94909668
2.424,-1
2.425,-0.451599121
2.426,0.417297363
2.427,1.593505859
2.428,3
2.429,2.796447754
2.43,2.980773926
2.431,3.725708008
2.432,5
2.433,4.880859375
2.434,5.201965332
2.435,5.961791992
2.436,7
2.437,6.347900391
2.438,5.887756348
2.439,5.757507324
2.44,6
2.441,4.862548828
2.442,4.397216797
2.443,4.795166016
2.444,6
2.445,6.015075684
2.446,6.591430664
2.447,7.650146484
2.448,9
2.449,8.693969727
2.45,8.674499512
2.451,9.111755371
2.452,10
2.453,9.442687988
2.454,9.276428223
2.455,9.502990723
2.456,10
2.457,8.893005371
2.458,8.212036133
2.459,8.219665527
2.46,9
2.461,8.70916748
2.462,9.197998047
2.463,10.38873291
2.464,12
2.465,11.94281006
2.466,12.04071045
2.467,12.39074707
2.468,13
2.469,12.05181885
2.47,11.53039551
2.471,11.54156494
2.472,12
2.473,10.97814941
2.474,10.41027832
2.475,10.42401123
2.476,11
2.477,10.26391602
2.478,10.15930176
2.479,10.7678833
2.48,12
2.481,11.91870117
2.482,12.41564941
2.483,13.50921631
2.484,15
2.485,14.79187012
2.486,14.60522461
2.487,14.375
2.488,14
2.489,11.70129395
2.49,9.683959961
2.491,8.376220703
2.492,8
2.493,6.794677734
2.494,6.660522461
2.495,7.503479004
2.496,9
2.497,9.013122559
2.498,9.33380127
2.499,10.01171875
2.5,11
2.501,10.42486572
2.502,10.21881104
2.503,10.44378662
2.504,11
2.505,9.983703613
2.506,9.385620117
2.507,9.38671875
2.508,10
2.509,9.346191406
2.51,9.323120117
2.511,9.930664063
2.512,11
2.513,10.55664063
2.514,10.52661133
2.515,11.02557373
2.516,12
2.517,11.50823975
2.518,11.38934326
2.519,11.60906982
2.52,12
2.521,10.63891602
2.522,9.54284668
2.523,8.961730957
2.524,9
2.525,7.86895752
2.526,7.526123047
2.527,7.977111816
2.528,9
2.529,8.522155762
2.53,8.359375
2.531,8.542785645
2.532,9
2.533,7.856750488
2.534,7.082397461
2.535,6.807006836
2.536,7
2.537,5.802368164
2.538,5.18560791
2.539,5.272827148
2.54,6
2.541,5.432373047
2.542,5.430236816
2.543,5.998901367
2.544,7
2.545,6.499816895
2.546,6.444763184
2.547,6.96081543
2.548,8
2.549,7.636901855
2.55,7.723022461
2.551,8.236206055
2.552,9
2.553,8.05291748
2.554,7.326904297
2.555,6.970397949
2.556,7
2.557,5.595214844
2.558,4.742797852
2.559,4.561706543
2.56,5
2.561,4.174194336
2.562,4.038818359
2.563,4.685913086
2.564,6
2.565,5.972106934
2.566,6.369262695
2.567,7.110778809
2.568,8
2.569,7.095458984
2.57,6.36505127
2.571,5.992248535
2.572,6
2.573,4.537414551
2.574,3.528625488
2.575,3.038513184
2.576,3
2.577,1.578125
2.578,0.824829102
2.579,0.965454102
2.58,2
2.581,1.969848633
2.582,2.608764648
2.583,3.731384277
2.584,5
2.585,4.344909668
2.586,3.668212891
2.587,3.177429199
2.588,3
2.589,1.430969238
2.59,0.526550293
2.591,0.416564941
2.592,1
2.593,0.314575195
2.594,0.235961914
2.595,0.82623291
2.596,2
2.597,1.823547363
2.598,2.149108887
2.599,2.946472168
2.6,4
2.601,3.279724121
2.602,2.639221191
2.603,2.194519043
2.604,2
2.605,0.345397949
2.606,-0.648681641
2.607,-0.752502441
2.608,0
2.609,-0.370788574
2.61,-0.092895508
2.611,0.757446289
2.612,2
2.613,1.715270996
2.614,1.882385254
2.615,2.662475586
2.616,4
2.617,3.907409668
2.618,4.127807617
2.619,4.555419922
2.62,5
2.621,3.590087891
2.622,2.416625977
2.623,1.83013916
2.624,2
2.625,1.143005371
2.626,1.126098633
2.627,1.847290039
2.628,3
2.629,2.504699707
2.63,2.237792969
2.631,2.375366211
2.632,3
2.633,2.331298828
2.634,2.315185547
2.635,2.950805664
2.636,4
2.637,3.386535645
2.638,2.942504883
2.639,2.790100098
2.64,3
2.641,1.845458984
2.642,1.409362793
2.643,1.840270996
2.644,3
2.645,2.796813965
2.646,2.950805664
2.647,3.392700195
2.648,4
2.649,2.923400879
2.65,2.251586914
2.651,2.260498047
2.652,3
2.653,2.545837402
2.654,2.677429199
2.655,3.258300781
2.656,4
2.657,2.863708496
2.658,1.814697266
2.659,1.128356934
2.66,1
2.661,-0.244262695
2.662,-0.519226074
2.663,0.286071777
2.664,2
2.665,2.523742676
2.666,3.596313477
2.667,5.149780273
2.668,7
2.669,7.149475098
2.67,7.488464355
2.671,8.11114502
2.672,9
2.673,8.32623291
2.674,8.157043457
2.675,8.713256836
2.676,10
2.677,10.07189941
2.678,10.78771973
2.679,12.14190674
2.68,14
2.681,14.42211914
2.682,15.37158203
2.683,16.94842529
2.684,19
2.685,19.3963623
2.686,19.79205322
2.687,20.04156494
2.688,20
2.689,17.89880371
2.69,16.03924561
2.691,14.97143555
2.692,15
2.693,14.34008789
2.694,14.80340576
2.695,16.16662598
2.696,18
2.697,18.11602783
2.698,18.37915039
2.699,18.97796631
2.7,20
2.701,19.6083374
2.702,19.70239258
2.703,20.23876953
2.704,21
2.705,19.99981689
2.706,19.2835083
2.707,19.20373535
2.708,20
2.709,19.96710205
2.71,21.07061768
2.711,23.21777344
2.712,26
2.713,27.11962891
2.714,28.20275879
2.715,29.18389893
2.716,30
2.717,28.86151123
2.718,27.86566162
2.719,27.24200439
2.72,27
2.721,25.25524902
2.722,23.94732666
2.723,23.19256592
2.724,23
2.725,21.59161377
2.726,21.0479126
2.727,21.54663086
2.728,23
2.729,23.35345459
2.73,24.29473877
2.731,25.61602783
2.732,27
2.733,26.42889404
2.734,25.89385986
2.735,25.68481445
2.736,26
2.737,25.17352295
2.738,25.2567749
2.739,26.28851318
2.74,28
2.741,28.20355225
2.742,28.54650879
2.743,28.88128662
2.744,29
2.745,26.97399902
2.746,24.82226563
2.747,22.78704834
2.748,21
2.749,17.78015137
2.75,15.26568604
2.751,13.68127441
2.752,13
2.753,11.26116943
2.754,10.2713623
2.755,9.933044434
2.756,10
2.757,8.449951172
2.758,7.203125
2.759,6.384338379
2.76,6
2.761,4.230529785
2.762,3.092407227
2.763,2.706054688
2.764,3
2.765,2.048583984
2.766,1.751525879
2.767,2.126098633
2.768,3
2.769,2.349914551
2.77,1.989318848
2.771,1.907226563
2.772,2
2.773,0.423706055
2.774,-0.740478516
2.775,-1.23828125
2.776,-1
2.777,-1.860717773
2.778,-1.913635254
2.779,-1.206787109
2.78,0
2.781,-0.374145508
2.782,-0.507629395
2.783,-0.365112305
2.784,0
2.785,-1.247314453
2.786,-2.073669434
2.787,-2.318054199
2.788,-2
2.789,-2.983642578
2.79,-3.323974609
2.791,-2.95501709
2.792,-2
2.793,-2.426635742
2.794,-2.390258789
2.795,-1.875854492
2.796,-1
2.797,-1.66217041
2.798,-1.924926758
2.799,-1.681152344
2.8,-1
2.801,-1.78503418
2.802,-2.193115234
2.803,-2.220031738
2.804,-2
2.805,-3.404724121
2.806,-4.479553223
2.807,-5.03125
2.808,-5
2.809,-6.132019043
2.81,-6.488891602
2.811,-6.04107666
2.812,-5
2.813,-5.39239502
2.814,-5.500244141
2.815,-5.345947266
2.816,-5
2.817,-6.199707031
2.818,-6.883483887
2.819,-6.813537598
2.82,-6
2.821,-6.396789551
2.822,-6.26159668
2.823,-5.716247559
2.824,-5
2.825,-6.108886719
2.826,-7.00189209
2.827,-7.360107422
2.828,-7
2.829,-7.768798828
2.83,-7.640991211
2.831,-6.614440918
2.832,-5
2.833,-5.256408691
2.834,-5.643737793
2.835,-6.202270508
2.836,-7
2.837,-10.11737061
2.838,-13.25750732
2.839,-15.97497559
2.84,-18
2.841,-21.28692627
2.842,-23.61981201
2.843,-24.81860352
2.844,-25
2.845,-26.46453857
2.846,-27.48846436
2.847,-28.24768066
2.848,-29
2.849,-31.75244141
2.85,-34.4387207
2.851,-36.65008545
2.852,-38
2.853,-39.84075928
2.854,-39.8338623
2.855,-37.57672119
2.856,-33
2.857,-27.99090576
2.858,-20.91265869
2.859,-12.07281494
2.86,-2
2.861,7.06842041
2.862,16.79248047
2.863,27.32879639
2.864,39
2.865,50.56219482
2.866,64.55297852
2.867,81.43322754
2.868,101
2.869,120.6682129
2.87,141.1688232
2.871,161.3092041
2.872,180
2.873,194.8647461
2.874,207.8050537
2.875,219.1663818
2.876,229
2.877,235.0996094
2.878,238.5073242
2.879,238.166626
2.88,233
2.881,220.6794434
2.882,203.3674316
2.883,182.0786133
2.884,158
2.885,130.5128174
2.886,102.5372314
2.887,75.07067871
2.888,49
2.889,23.60552979
2.89,2.002929688
2.891,-14.66265869
2.892,-26
2.893,-34.2600708
2.894,-38.76147461
2.895,-40.91467285
2.896,-42
2.897,-44.31561279
2.898,-45.57110596
2.899,-44.72290039
2.9,-41
2.901,-36.16027832
2.902,-29.16088867
2.903,-21.51153564
2.904,-15
2.905,-12.67071533
2.906,-12.72576904
2.907,-14.26605225
2.908,-16
2.909,-18.54852295
2.91,-19.13421631
2.911,-17.71289063
2.912,-15
2.913,-13.80822754
2.914,-12.644104
2.915,-11.71087646
2.916,-11
2.917,-12.20556641
2.918,-12.82440186
2.919,-12.69067383
2.92,-12
2.921,-12.93426514
2.922,-13.41101074
2.923,-13.41210938
2.924,-13
2.925,-14.0546875
2.926,-14.39624023
2.927,-13.97540283
2.928,-13
2.929,-13.52947998
2.93,-13.71459961
2.931,-13.52160645
2.932,-13
2.933,-13.92498779
2.934,-14.31567383
2.935,-13.99188232
2.936,-13
2.937,-13.26190186
2.938,-13.09362793
2.939,-12.59906006
2.94,-12
2.941,-13.19818115
2.942,-14.27099609
2.943,-14.93328857
2.944,-15
2.945,-16.1184082
2.946,-16.30499268
2.947,-15.51861572
2.948,-14
2.949,-13.84747314
2.95,-13.40734863
2.951,-12.7489624
2.952,-12
2.953,-12.98937988
2.954,-13.74969482
2.955,-14.0914917
2.956,-14
2.957,-15.29315186
2.958,-16.07611084
2.959,-16.28045654
2.96,-16
2.961,-17.1083374
2.962,-17.70574951
2.963,-17.66467285
2.964,-17
2.965,-17.53198242
2.966,-17.36486816
2.967,-16.45953369
2.968,-15
2.969,-15.01416016
2.97,-14.80133057
2.971,-14.42004395
2.972,-14
2.973,-15.3550415
2.974,-16.45959473
2.975,-17.04046631
2.976,-17
2.977,-18.10864258
2.978,-18.46942139
2.979,-18.05004883
2.98,-17
2.981,-17.26074219
2.982,-17.00006104
2.983,-16.19171143
2.984,-15
2.985,-15.42572021
2.986,-15.73150635
2.987,-15.91424561
2.988,-16
2.989,-17.66223145
2.99,-18.73236084
2.991,-18.86004639
2.992,-18
2.993,-18.12463379
2.994,-17.6449585
2.995,-16.8314209
2.996,-16
2.997,-17.02423096
2.998,-17.79052734
2.999,-17.85601807
3,-17
3.001,-17.02166748
3.002,-16.27404785
3.003,-15.09912109
3.004,-14
3.005,-15.07171631
3.006,-16.37268066
3.007,-17.47845459
3.008,-18
3.009,-19.41363525
3.01,-19.66973877
3.011,-18.75976563
3.012,-17
3.013,-16.53759766
3.014,-15.69927979
3.015,-14.49249268
3.016,-13
3.017,-13.08337402
3.018,-12.91497803
3.019,-12.50183105
3.02,-12
3.021,-13.27972412
3.022,-14.36676025
3.023,-14.9864502
3.024,-15
3.025,-16.12683105
3.026,-16.45983887
3.027,-16.00622559
3.028,-15
3.029,-15.47149658
3.03,-15.64678955
3.031,-15.47265625
3.032,-15
3.033,-16.06378174
3.034,-16.77386475
3.035,-17.05621338
3.036,-17
3.037,-18.4664917
3.038,-19.53961182
3.039,-20.05865479
3.04,-20
3.041,-21.14343262
3.042,-21.55596924
3.043,-21.14056396
3.044,-20
3.045,-20.0748291
3.046,-19.56671143
3.047,-18.48553467
3.048,-17
3.049,-17.07531738
3.05,-16.92156982
3.051,-16.52502441
3.052,-16
3.053,-17.21148682
3.054,-18.22961426
3.055,-18.85626221
3.056,-19
3.057,-20.34448242
3.058,-20.85614014
3.059,-20.37420654
3.06,-19
3.061,-18.73077393
3.062,-17.88293457
3.063,-16.57073975
3.064,-15
3.065,-15.06292725
3.066,-14.83074951
3.067,-14.13482666
3.068,-13
3.069,-13.324646
3.07,-13.36151123
3.071,-13.19091797
3.072,-13
3.073,-14.64056396
3.074,-16.07427979
3.075,-16.93920898
3.076,-17
3.077,-17.88452148
3.078,-17.63104248
3.079,-16.23919678
3.08,-14
3.081,-13.05975342
3.082,-11.81890869
3.083,-10.40057373
3.084,-9
3.085,-9.524291992
3.086,-10.09991455
3.087,-10.59655762
3.088,-11
3.089,-13.04034424
3.09,-14.68890381
3.091,-15.69744873
3.092,-16
3.093,-17.37811279
3.094,-17.9654541
3.095,-17.76751709
3.096,-17
3.097,-17.67773438
3.098,-18.06054688
3.099,-18.14025879
3.1,-18
3.101,-19.44781494
3.102,-20.52996826
3.103,-21.05834961
3.104,-21
3.105,-22.12548828
3.106,-22.51538086
3.107,-22.0949707
3.108,-21
3.109,-21.19366455
3.11,-20.90820313
3.111,-20.14343262
3.112,-19
3.113,-19.30999756
3.114,-19.13153076
3.115,-18.33337402
3.116,-17
3.117,-17.08398438
3.118,-16.87011719
3.119,-16.44561768
3.12,-16
3.121,-17.40942383
3.122,-18.69689941
3.123,-19.60083008
3.124,-20
3.125,-21.62127686
3.126,-22.50964355
3.127,-22.59307861
3.128,-22
3.129,-22.67150879
3.13,-22.74829102
3.131,-22.15844727
3.132,-21
3.133,-21.22827148
3.134,-21.07702637
3.135,-20.60418701
3.136,-20
3.137,-21.18914795
3.138,-22.22833252
3.139,-22.87628174
3.14,-23
3.141,-24.29333496
3.142,-24.75421143
3.143,-24.27520752
3.144,-23
3.145,-22.95056152
3.146,-22.39276123
3.147,-21.3605957
3.148,-20
3.149,-20.23077393
3.15,-20.17669678
3.151,-19.74456787
3.152,-19
3.153,-19.82763672
3.154,-20.33319092
3.155,-20.39227295
3.156,-20
3.157,-20.9407959
3.158,-21.19329834
3.159,-20.54840088
3.16,-19
3.161,-18.4397583
3.162,-17.04046631
3.163,-14.82745361
3.164,-12
3.165,-10.57006836
3.166,-8.741943359
3.167,-6.501464844
3.168,-4
3.169,-3.236694336
3.17,-2.454772949
3.171,-1.673034668
3.172,-1
3.173,-2.260314941
3.174,-3.388671875
3.175,-4.036010742
3.176,-4
3.177,-4.96875
3.178,-4.958557129
3.179,-3.905273438
3.18,-2
3.181,-1.315185547
3.182,-0.164672852
3.183,1.352416992
3.184,3
3.185,2.753967285
3.186,2.428527832
3.187,2.146728516
3.188,2
3.189,0.367248535
3.19,-0.540222168
3.191,-0.352233887
3.192,1
3.193,1.55255127
3.194,2.939697266
3.195,4.891662598
3.196,7
3.197,7.158447266
3.198,7.234130859
3.199,7.462158203
3.2,8
3.201,7.151855469
3.202,6.886413574
3.203,7.240112305
3.204,8
3.205,7.11895752
3.206,6.412719727
3.207,6.011108398
3.208,6
3.209,4.693664551
3.21,4.186645508
3.211,4.658447266
3.212,6
3.213,6.152648926
3.214,6.806518555
3.215,7.830444336
3.216,9
3.217,8.363525391
3.218,7.874206543
3.219,7.733032227
3.22,8
3.221,6.879455566
3.222,6.322998047
3.223,6.402893066
3.224,7
3.225,6.169555664
3.226,5.824157715
3.227,6.097717285
3.228,7
3.229,6.704040527
3.23,7.14251709
3.231,8.324645996
3.232,10
3.233,10.02746582
3.234,10.08276367
3.235,10.10101318
3.236,10
3.237,8.020385742
3.238,6.328979492
3.239,5.279907227
3.24,5
3.241,3.655944824
3.242,3.109924316
3.243,3.30090332
3.244,4
3.245,3.209289551
3.246,2.856811523
3.247,3.11151123
3.248,4
3.249,3.664428711
3.25,3.968688965
3.251,4.84173584
3.252,6
3.253,5.35723877
3.254,4.735107422
3.255,4.254699707
3.256,4
3.257,2.295043945
3.258,1.285522461
3.259,1.202880859
3.26,2
3.261,1.679748535
3.262,1.993286133
3.263,2.839050293
3.264,4
3.265,3.504760742
3.266,3.282287598
3.267,3.461425781
3.268,4
3.269,2.986328125
3.27,2.296386719
3.271,1.98223877
3.272,2
3.273,0.569152832
3.274,-0.203857422
3.275,-0.060546875
3.276,1
3.277,0.995544434
3.278,1.634338379
3.279,2.731018066
3.28,4
3.281,3.478210449
3.282,3.16809082
3.283,3.322692871
3.284,4
3.285,3.307067871
3.286,3.012329102
3.287,2.986206055
3.288,3
3.289,1.178161621
3.29,-0.351196289
3.291,-1.160766602
3.292,-1
3.293,-1.604492188
3.294,-1.134155273
3.295,0.213928223
3.296,2
3.297,2.029296875
3.298,2.098022461
3.299,2.37487793
3.3,3
3.301,2.293579102
3.302,2.269348145
3.303,2.937988281
3.304,4
3.305,3.278625488
3.306,2.484802246
3.307,1.68347168
3.308,1
3.309,-1.098449707
3.31,-2.302246094
3.311,-2.254211426
3.312,-1
3.313,-0.679382324
3.314,0.18170166
3.315,1.203735352
3.316,2
3.317,0.630065918
3.318,-0.771484375
3.319,-1.741027832
3.32,-2
3.321,-3.278808594
3.322,-3.733581543
3.323,-3.525756836
3.324,-3
3.325,-4.195556641
3.326,-5.126403809
3.327,-5.464172363
3.328,-5
3.329,-5.464538574
3.33,-4.981994629
3.331,-3.697875977
3.332,-2
3.333,-2.038879395
3.334,-1.993896484
3.335,-1.687927246
3.336,-1
3.337,-1.647583008
3.338,-1.659606934
3.339,-1.030273438
3.34,0
3.341,-0.626037598
3.342,-1.071960449
3.343,-1.213134766
3.344,-1
3.345,-2.190795898
3.346,-2.781616211
3.347,-2.67578125
3.348,-2
3.349,-2.725158691
3.35,-2.995666504
3.351,-2.737854004
3.352,-2
3.353,-2.63885498
3.354,-2.717102051
3.355,-2.141357422
3.356,-1
3.357,-1.225280762
3.358,-0.953430176
3.359,-0.162109375
3.36,1
3.361,0.561462402
3.362,0.375366211
3.363,0.524902344
3.364,1
3.365,0.021972656
3.366,-0.373596191
3.367,-0.017822266
3.368,1
3.369,0.654968262
3.37,0.635620117
3.371,0.815124512
3.372,1
3.373,-0.668823242
3.374,-2.102233887
3.375,-2.941467285
3.376,-3
3.377,-4.023193359
3.378,-4.114685059
3.379,-3.34161377
3.38,-2
3.381,-2.188659668
3.382,-2.117980957
3.383,-1.717407227
3.384,-1
3.385,-1.775695801
3.386,-2.076538086
3.387,-1.793151855
3.388,-1
3.389,-1.597412109
3.39,-1.666870117
3.391,-1.107543945
3.392,0
3.393,-0.301574707
3.394,-0.200012207
3.395,0.282104492
3.396,1
3.397,0.053466797
3.398,-0.554504395
3.399,-0.592956543
3.4,0
3.401,-0.623901367
3.402,-0.594848633
3.403,0.032592773
3.404,1
3.405,0.233520508
3.406,-0.424987793
3.407,-0.854492188
3.408,-1
3.409,-2.602722168
3.41,-3.571289063
3.411,-3.69519043
3.412,-3
3.413,-3.440307617
3.414,-3.192260742
3.415,-2.304992676
3.416,-1
3.417,-1.329345703
3.418,-1.467834473
3.419,-1.351074219
3.42,-1
3.421,-2.218383789
3.422,-2.927612305
3.423,-2.87322998
3.424,-2
3.425,-2.182250977
3.426,-1.530883789
3.427,-0.062744141
3.428,2
3.429,2.570007324
3.43,3.438659668
3.431,4.614379883
3.432,6
3.433,5.689331055
3.434,5.663696289
3.435,6.094177246
3.436,7
3.437,6.538757324
3.438,6.68560791
3.439,7.541137695
3.44,9
3.441,9.070007324
3.442,9.592285156
3.443,10.59729004
3.444,12
3.445,11.9072876
3.446,12.31048584
3.447,13.36029053
3.448,15
3.449,15.24273682
3.45,15.887146
3.451,16.87133789
3.452,18
3.453,17.30212402
3.454,16.75628662
3.455,16.60961914
3.456,17
3.457,16.19482422
3.458,16.2366333
3.459,17.22729492
3.46,19
3.461,19.45581055
3.462,20.32873535
3.463,21.55877686
3.464,23
3.465,22.72766113
3.466,22.72509766
3.467,23.15802002
3.468,24
3.469,23.30340576
3.47,22.92694092
3.471,22.8706665
3.472,23
3.473,21.39007568
3.474,20.05102539
3.475,19.21917725
3.476,19
3.477,17.6295166
3.478,17.13848877
3.479,17.63781738
3.48,19
3.481,19.19042969
3.482,19.98968506
3.483,21.33007813
3.484,23
3.485,22.97766113
3.486,23.12036133
3.487,23.48168945
3.488,24
3.489,22.82391357
3.49,21.98352051
3.491,21.69000244
3.492,22
3.493,21.11206055
3.494,20.99926758
3.495,21.69775391
3.496,23
3.497,22.82275391
3.498,22.9352417
3.499,23.33978271
3.5,24
3.501,23.16204834
3.502,22.95251465
3.503,23.59259033
3.504,25
3.505,25.08453369
3.506,25.46398926
3.507,25.8737793
3.508,26
3.509,23.91375732
3.51,21.76879883
3.511,20.02368164
3.512,19
3.513,17.0635376
3.514,16.20367432
3.515,16.32019043
3.516,17
3.517,15.98565674
3.518,14.96179199
3.519,13.95025635
3.52,13
3.521,10.45654297
3.522,8.5
3.523,7.369750977
3.524,7
3.525,5.366760254
3.526,4.218566895
3.527,3.475036621
3.528,3
3.529,0.962524414
3.53,-0.525024414
3.531,-1.190979004
3.532,-1
3.533,-1.878112793
3.534,-2.048217773
3.535,-1.660217285
3.536,-1
3.537,-2.066894531
3.538,-2.885192871
3.539,-3.227172852
3.54,-3
3.541,-3.996643066
3.542,-4.280700684
3.543,-3.874145508
3.544,-3
3.545,-3.670837402
3.546,-3.969970703
3.547,-3.752990723
3.548,-3
3.549,-3.551452637
3.55,-3.497314453
3.551,-2.889221191
3.552,-2
3.553,-2.906188965
3.554,-3.775512695
3.555,-4.497192383
3.556,-5
3.557,-6.950195313
3.558,-8.20916748
3.559,-8.547851563
3.56,-8
3.561,-8.504211426
3.562,-8.272521973
3.563,-7.371337891
3.564,-6
3.565,-6.097473145
3.566,-5.801757813
3.567,-5.061889648
3.568,-4
3.569,-4.530700684
3.57,-4.861328125
3.571,-4.989257813
3.572,-5
3.573,-6.63269043
3.574,-7.836242676
3.575,-8.323974609
3.576,-8
3.577,-8.641235352
3.578,-8.418579102
3.579,-7.431274414
3.58,-6
3.581,-6.241760254
3.582,-6.378417969
3.583,-6.315063477
3.584,-6
3.585,-7.192321777
3.586,-7.808227539
3.587,-7.695129395
3.588,-7
3.589,-7.929626465
3.59,-8.720947266
3.591,-9.394226074
3.592,-10
3.593,-12.49914551
3.594,-14.58032227
3.595,-15.80151367
3.596,-16
3.597,-17.36035156
3.598,-18.00280762
3.599,-18.09216309
3.6,-18
3.601,-20.18859863
3.602,-22.71203613
3.603,-25.36657715
3.604,-28
3.605,-32.49487305
3.606,-36.64801025
3.607,-40.18463135
3.608,-43
3.609,-46.86047363
3.61,-49.56988525
3.611,-50.70996094
3.612,-50
3.613,-49.02294922
3.614,-45.77740479
3.615,-40.29821777
3.616,-33
3.617,-26.21075439
3.618,-18.57678223
3.619,-10.4239502
3.62,-2
3.621,4.959411621
3.622,12.72106934
3.623,21.90875244
3.624,33
3.625,44.54101563
3.626,58.61138916
3.627,75.22241211
3.628,94
3.629,112.6053467
3.63,132.3658447
3.631,152.7426758
3.632,173
3.633,190.5767822
3.634,206.6635742
3.635,220.6865234
3.636,232
3.637,238.2753906
3.638,241.0300293
3.639,240.0515137
3.64,235
3.641,223.7801514
3.642,208.1678467
3.643,188.4105225
3.644,165
3.645,137.0987549
3.646,108.0073242
3.647,79.46484375
3.648,53
3.649,28.03887939
3.65,7.223449707
3.651,-9.06427002
3.652,-21
3.653,-30.77337646
3.654,-36.9708252
3.655,-39.90203857
3.656,-40
3.657,-39.50531006
3.658,-37.01245117
3.659,-32.96472168
3.66,-28
3.661,-24.53045654
3.662,-21.08477783
3.663,-17.84942627
3.664,-15
3.665,-14.39910889
3.666,-13.98529053
3.667,-13.53747559
3.668,-13
3.669,-14.18933105
3.67,-14.98547363
3.671,-15.24615479
3.672,-15
3.673,-16.16638184
3.674,-16.56665039
3.675,-16.13201904
3.676,-15
3.677,-15.25177002
3.678,-14.76348877
3.679,-13.59906006
3.68,-12
3.681,-12.09680176
3.682,-11.75152588
3.683,-10.98614502
3.684,-10
3.685,-10.85546875
3.686,-11.4854126
3.687,-11.84429932
3.688,-12
3.689,-13.76483154
3.69,-14.99456787
3.691,-15.4230957
3.692,-15
3.693,-15.57189941
3.694,-15.34765625
3.695,-14.40386963
3.696,-13
3.697,-13.15319824
3.698,-13.0894165
3.699,-12.70715332
3.7,-12
3.701,-12.74664307
3.702,-13.02838135
3.703,-12.74884033
3.704,-12
3.705,-12.68493652
3.706,-12.94287109
3.707,-12.69281006
3.708,-12
3.709,-12.73400879
3.71,-13.01098633
3.711,-12.74633789
3.712,-12
3.713,-12.61846924
3.714,-12.68579102
3.715,-12.10760498
3.716,-11
3.717,-11.34484863
3.718,-11.41143799
3.719,-11.25213623
3.72,-11
3.721,-12.47210693
3.722,-13.62701416
3.723,-14.17242432
3.724,-14
3.725,-14.89440918
3.726,-14.98687744
3.727,-14.29211426
3.728,-13
3.729,-13.06524658
3.73,-12.62231445
3.731,-11.57391357
3.732,-10
3.733,-9.846313477
3.734,-9.380310059
3.735,-8.695922852
3.736,-8
3.737,-9.187988281
3.738,-10.26300049
3.739,-10.92352295
3.74,-11
3.741,-12.19177246
3.742,-12.55737305
3.743,-12.08496094
3.744,-11
3.745,-11.3404541
3.746,-11.31982422
3.747,-10.86712646
3.748,-10
3.749,-10.52398682
3.75,-10.52093506
3.751,-9.950012207
3.752,-9
3.753,-9.694152832
3.754,-10.27630615
3.755,-10.70953369
3.756,-11
3.757,-12.84881592
3.758,-14.13311768
3.759,-14.54138184
3.76,-14
3.761,-14.36846924
3.762,-13.87640381
3.763,-12.65045166
3.764,-11
3.765,-10.99493408
3.766,-10.85797119
3.767,-10.51867676
3.768,-10
3.769,-11.10229492
3.77,-11.87493896
3.771,-12.17333984
3.772,-12
3.773,-13.13983154
3.774,-13.59564209
3.775,-13.19702148
3.776,-12
3.777,-11.96673584
3.778,-11.36907959
3.779,-10.31091309
3.78,-9
3.781,-9.345153809
3.782,-9.386657715
3.783,-8.932250977
3.784,-8
3.785,-8.526611328
3.786,-8.790283203
3.787,-8.893432617
3.788,-9
3.789,-10.89904785
3.79,-12.44177246
3.791,-13.20666504
3.792,-13
3.793,-13.62585449
3.794,-13.33959961
3.795,-12.34509277
3.796,-11
3.797,-11.33422852
3.798,-11.41900635
3.799,-11.00341797
3.8,-10
3.801,-10.2590332
3.802,-10.04467773
3.803,-9.527832031
3.804,-9
3.805,-10.38256836
3.806,-11.60559082
3.807,-12.2388916
3.808,-12
3.809,-12.56713867
3.81,-12.09594727
3.811,-10.76483154
3.812,-9
3.813,-8.965698242
3.814,-8.886352539
3.815,-8.601135254
3.816,-8
3.817,-8.791259766
3.818,-9.028747559
3.819,-8.694458008
3.82,-8
3.821,-8.942749023
3.822,-9.673706055
3.823,-10.04534912
3.824,-10
3.825,-11.2800293
3.826,-11.90893555
3.827,-11.78283691
3.828,-11
3.829,-11.47058105
3.83,-11.32202148
3.831,-10.47076416
3.832,-9
3.833,-8.833618164
3.834,-8.20098877
3.835,-7.176940918
3.836,-6
3.837,-6.65814209
3.838,-7.30255127
3.839,-7.779052734
3.84,-8
3.841,-9.628540039
3.842,-10.59155273
3.843,-10.69268799
3.844,-10
3.845,-10.48010254
3.846,-10.40783691
3.847,-9.858459473
3.848,-9
3.849,-9.699462891
3.85,-10.00793457
3.851,-9.760070801
3.852,-9
3.853,-9.655761719
3.854,-9.983032227
3.855,-10.0491333
3.856,-10
3.857,-11.63946533
3.858,-12.87957764
3.859,-13.37768555
3.86,-13
3.861,-13.55615234
3.862,-13.27435303
3.863,-12.31195068
3.864,-11
3.865,-11.3770752
3.866,-11.58959961
3.867,-11.47497559
3.868,-11
3.869,-11.98352051
3.87,-12.59820557
3.871,-12.88049316
3.872,-13
3.873,-14.81280518
3.874,-16.2756958
3.875,-17.05731201
3.876,-17
3.877,-17.87780762
3.878,-17.87457275
3.879,-17.13269043
3.88,-16
3.881,-16.56378174
3.882,-17.00158691
3.883,-17.16558838
3.884,-17
3.885,-18.27416992
3.886,-19.05419922
3.887,-19.26739502
3.888,-19
3.889,-20.10009766
3.89,-20.56884766
3.891,-20.19824219
3.892,-19
3.893,-18.93292236
3.894,-18.28881836
3.895,-17.22436523
3.896,-16
3.897,-16.5625
3.898,-16.90509033
3.899,-16.74682617
3.9,-16
3.901,-16.53961182
3.902,-16.60864258
3.903,-16.34454346
3.904,-16
3.905,-17.49523926
3.906,-18.74603271
3.907,-19.33538818
3.908,-19
3.909,-19.45251465
3.91,-18.81207275
3.911,-17.20379639
3.912,-15
3.913,-14.37011719
3.914,-13.54571533
3.915,-12.42834473
3.916,-11
3.917,-11.08752441
3.918,-10.7833252
3.919,-10.04571533
3.92,-9
3.921,-9.549987793
3.922,-9.708557129
3.923,-9.223754883
3.924,-8
3.925,-7.856811523
3.926,-6.920227051
3.927,-5.223083496
3.928,-3
3.929,-2.297973633
3.93,-1.284973145
3.931,0.149658203
3.932,2
3.933,2.401672363
3.934,3.232421875
3.935,4.496765137
3.936,6
3.937,5.723999023
3.938,5.528869629
3.939,5.581604004
3.94,6
3.941,5.121337891
3.942,5.071472168
3.943,6.065551758
3.944,8
3.945,8.768066406
3.946,9.982666016
3.947,11.46569824
3.948,13
3.949,12.6963501
3.95,12.60803223
3.951,13.02508545
3.952,14
3.953,13.59039307
3.954,13.52960205
3.955,13.71582031
3.956,14
3.957,12.59289551
3.958,11.70288086
3.959,11.78167725
3.96,13
3.961,13.42474365
3.962,14.66381836
3.963,16.34979248
3.964,18
3.965,17.51611328
3.966,16.92175293
3.967,16.64654541
3.968,17
3.969,16.28857422
3.97,16.38146973
3.971,17.09234619
3.972,18
3.973,16.9541626
3.974,15.88226318
3.975,15.12670898
3.976,15
3.977,13.9197998
3.978,13.95996094
3.979,15.10827637
3.98,17
3.981,17.35601807
3.982,17.8237915
3.983,18.3762207
3.984,19
3.985,17.94689941
3.986,17.33453369
3.987,17.37219238
3.988,18
3.989,17.21173096
3.99,16.81152344
3.991,16.77685547
3.992,17
3.993,15.61816406
3.994,14.7010498
3.995,14.48522949
3.996,15
3.997,14.33532715
3.998,14.34436035
3.999,14.97119141
4,16
4.001,15.42364502
4.002,15.16748047
4.003,15.36590576
4.004,16
4.005,15.15789795
4.006,14.73309326
4.007,14.72692871
4.008,15
4.009,13.63787842
4.01,12.69580078
4.011,12.44586182
4.012,13
4.013,12.53552246
4.014,12.96990967
4.015,14.23034668
4.016,16
4.017,16.10723877
4.018,16.31048584
4.019,16.62268066
4.02,17
4.021,15.62164307
4.022,14.5546875
4.023,14.00640869
4.024,14
4.025,12.67962646
4.026,12.03692627
4.027,12.17572021
4.028,13
4.029,12.515625
4.03,12.5647583
4.031,13.11779785
4.032,14
4.033,13.22692871
4.034,12.73803711
4.035,12.66455078
4.036,13
4.037,11.88781738
4.038,11.30761719
4.039,11.36669922
4.04,12
4.041,11.296875
4.042,11.20367432
4.043,11.80517578
4.044,13
4.045,12.80670166
4.046,13.0871582
4.047,13.85644531
4.048,15
4.049,14.59649658
4.05,14.60290527
4.051,15.1104126
4.052,16
4.053,15.25463867
4.054,14.68078613
4.055,14.27972412
4.056,14
4.057,12.08422852
4.058,10.73748779
4.059,10.33447266
4.06,11
4.061,10.83972168
4.062,11.62615967
4.063,13.14526367
4.064,15
4.065,15.04046631
4.066,15.12719727
4.067,15.42126465
4.068,16
4.069,15.07873535
4.07,14.62963867
4.071,14.67126465
4.072,15
4.073,13.5871582
4.074,12.34075928
4.075,11.43994141
4.076,11
4.077,9.327209473
4.078,8.537841797
4.079,8.80090332
4.08,10
4.081,10.06481934
4.082,10.70581055
4.083,11.77453613
4.084,13
4.085,12.34490967
4.086,11.71112061
4.087,11.24420166
4.088,11
4.089,9.231201172
4.09,8.03717041
4.091,7.630249023
4.092,8
4.093,7.219665527
4.094,7.164672852
4.095,7.820678711
4.096,9
4.097,8.67956543
4.098,8.723266602
4.099,9.18572998
4.1,10
4.101,9.283569336
4.102,9.006408691
4.103,9.27532959
4.104,10
4.105,9.209838867
4.106,8.77130127
4.107,8.723083496
4.108,9
4.109,7.762268066
4.11,7.076416016
4.111,7.157043457
4.112,8
4.113,7.657653809
4.114,7.952331543
4.115,8.807556152
4.116,10
4.117,9.526306152
4.118,9.309265137
4.119,9.477355957
4.12,10
4.121,8.968200684
4.122,8.276062012
4.123,7.972839355
4.124,8
4.125,6.544067383
4.126,5.730041504
4.127,5.858154297
4.128,7
4.129,7.232971191
4.13,8.317993164
4.131,10.04211426
4.132,12
4.133,12.01623535
4.134,11.92260742
4.135,11.878479
4.136,12
4.137,10.58282471
4.138,9.720092773
4.139,9.561218262
4.14,10
4.141,9.028686523
4.142,8.508422852
4.143,8.508056641
4.144,9
4.145,8.142150879
4.146,7.963989258
4.147,8.610839844
4.148,10
4.149,10.11352539
4.15,10.73797607
4.151,11.78167725
4.152,13
4.153,12.33953857
4.154,11.69641113
4.155,11.22265625
4.156,11
4.157,9.301635742
4.158,8.278747559
4.159,8.180664063
4.16,9
4.161,8.755187988
4.162,9.253662109
4.163,10.41241455
4.164,12
4.165,11.97369385
4.166,12.24108887
4.167,12.92224121
4.168,14
4.169,13.57678223
4.17,13.5914917
4.171,14.1036377
4.172,15
4.173,14.31359863
4.174,14.00701904
4.175,14.23162842
4.176,15
4.177,14.44476318
4.178,14.55969238
4.179,15.4442749
4.18,17
4.181,17.22912598
4.182,18.00189209
4.183,19.31884766
4.184,21
4.185,20.98327637
4.186,21.11590576
4.187,21.4574585
4.188,22
4.189,20.95031738
4.19,20.46148682
4.191,20.80834961
4.192,22
4.193,22.02130127
4.194,22.63415527
4.195,23.7043457
4.196,25
4.197,24.54992676
4.198,24.4161377
4.199,24.87524414
4.2,26
4.201,25.85699463
4.202,26.25042725
4.203,27.05084229
4.204,28
4.205,27.1027832
4.206,26.43353271
4.207,26.33642578
4.208,27
4.209,26.61889648
4.21,27.10186768
4.211,28.340271
4.212,30
4.213,29.91931152
4.214,29.97344971
4.215,30.31323242
4.216,31
4.217,30.19622803
4.218,29.90869141
4.219,30.21313477
4.22,31
4.221,30.31652832
4.222,30.16668701
4.223,30.72949219
4.224,32
4.225,32.02575684
4.226,32.6350708
4.227,33.7175293
4.228,35
4.229,34.42376709
4.23,33.94689941
4.231,33.77423096
4.232,34
4.233,32.83166504
4.234,32.27770996
4.235,32.38952637
4.236,33
4.237,32.09014893
4.238,31.56793213
4.239,31.54089355
4.24,32
4.241,31.08862305
4.242,30.78552246
4.243,31.14208984
4.244,32
4.245,31.34503174
4.246,31.07391357
4.247,31.28656006
4.248,32
4.249,31.44110107
4.25,31.69934082
4.251,32.92895508
4.252,35
4.253,35.79772949
4.254,36.95135498
4.255,38.16125488
4.256,39
4.257,37.32574463
4.258,35.07550049
4.259,32.53326416
4.26,30
4.261,26.01763916
4.262,22.98632813
4.263,21.30230713
4.264,21
4.265,20.05224609
4.266,20.13104248
4.267,20.93505859
4.268,22
4.269,21.11065674
4.27,20.07879639
4.271,19.01123047
4.272,18
4.273,15.3815918
4.274,13.3760376
4.275,12.25408936
4.276,12
4.277,10.62316895
4.278,9.919006348
4.279,9.784423828
4.28,10
4.281,8.59375
4.282,7.550842285
4.283,7.026611328
4.284,7
4.285,5.557617188
4.286,4.59387207
4.287,4.11315918
4.288,4
4.289,2.389526367
4.29,1.375854492
4.291,1.223815918
4.292,2
4.293,1.822998047
4.294,2.549987793
4.295,4.052185059
4.296,6
4.297,6.259460449
4.298,6.669311523
4.299,7.272705078
4.3,8
4.301,6.952636719
4.302,6.074462891
4.303,5.43927002
4.304,5
4.305,2.960632324
4.306,1.446533203
4.307,0.761474609
4.308,1
4.309,0.30859375
4.31,0.527099609
4.311,1.529541016
4.312,3
4.313,2.865722656
4.314,2.958068848
4.315,3.351257324
4.316,4
4.317,3.05090332
4.318,2.396057129
4.319,2.075927734
4.32,2
4.321,0.361877441
4.322,-0.810180664
4.323,-1.280334473
4.324,-1
4.325,-1.776245117
4.326,-1.789001465
4.327,-1.11517334
4.328,0
4.329,-0.411437988
4.33,-0.458679199
4.331,0.00958252
4.332,1
4.333,0.63885498
4.334,0.767150879
4.335,1.309692383
4.336,2
4.337,0.749755859
4.338,-0.49621582
4.339,-1.481933594
4.34,-2
4.341,-3.778930664
4.342,-4.598266602
4.343,-4.273925781
4.344,-3
4.345,-3.220703125
4.346,-3.300842285
4.347,-3.471313477
4.348,-4
4.349,-7.096313477
4.35,-10.47644043
4.351,-13.59124756
4.352,-16
4.353,-19.50604248
4.354,-21.83172607
4.355,-22.88580322
4.356,-23
4.357,-24.7590332
4.358,-26.59326172
4.359,-28.66595459
4.36,-31
4.361,-35.31152344
4.362,-38.93963623
4.363,-41.02252197
4.364,-41
4.365,-40.46838379
4.366,-37.68127441
4.367,-33.00439453
4.368,-27
4.369,-21.78955078
4.37,-15.50354004
4.371,-7.911437988
4.372,1
4.373,9.243530273
4.374,18.39111328
4.375,28.2824707
4.376,39
4.377,49.36010742
4.378,62.25970459
4.379,78.52734375
4.38,98
4.381,117.6386719
4.382,137.4785156
4.383,155.8662109
4.384,172
4.385,184.6464844
4.386,197.2425537
4.387,211.1335449
4.388,226
4.389,237.7133789
4.39,244.6164551
4.391,243.6676025
4.392,234
4.393,216.2637939
4.394,197.505127
4.395,183.3817139
4.396,177
4.397,175.3409424
4.398,174.8487549
4.399,168.125
4.4,149
4.401,113.9439697
4.402,68.74853516
4.403,21.70245361
4.404,-18
4.405,-45.47479248
4.406,-56.97796631
4.407,-55.46099854
4.408,-47
4.409,-39.52197266
4.41,-34.85321045
4.411,-33.33605957
4.412,-33
4.413,-33.01757813
4.414,-29.83282471
4.415,-23.56896973
4.416,-16
4.417,-11.10992432
4.418,-8.291137695
4.419,-7.545776367
4.42,-8
4.421,-10.31896973
4.422,-11.60931396
4.423,-11.66815186
4.424,-11
4.425,-12.07977295
4.426,-12.96099854
4.427,-13.3692627
4.428,-13
4.429,-13.5880127
4.43,-12.99645996
4.431,-11.58666992
4.432,-10
4.433,-10.60137939
4.434,-11.17303467
4.435,-11.38275146
4.436,-11
4.437,-11.81274414
4.438,-11.73632813
4.439,-10.98370361
4.44,-10
4.441,-10.97521973
4.442,-11.80053711
4.443,-12.20452881
4.444,-12
4.445,-12.8348999
4.446,-12.73406982
4.447,-11.68939209
4.448,-10
4.449,-9.818481445
4.45,-9.562744141
4.451,-9.27545166
4.452,-9
4.453,-10.44903564
4.454,-11.56903076
4.455,-12.09729004
4.456,-12
4.457,-13.13433838
4.458,-13.6697998
4.459,-13.58898926
4.46,-13
4.461,-13.76275635
4.462,-13.92053223
4.463,-13.31781006
4.464,-12
4.465,-11.8994751
4.466,-11.26696777
4.467,-10.2119751
4.468,-9
4.469,-9.63861084
4.47,-10.27563477
4.471,-10.75421143
4.472,-11
4.473,-12.71899414
4.474,-13.87591553
4.475,-14.29223633
4.476,-14
4.477,-14.87243652
4.478,-15.02539063
4.479,-14.37554932
4.48,-13
4.481,-12.81219482
4.482,-12.00469971
4.483,-10.64221191
4.484,-9
4.485,-9.167175293
4.486,-9.417297363
4.487,-9.707946777
4.488,-10
4.489,-11.92120361
4.49,-13.26135254
4.491,-13.64813232
4.492,-13
4.493,-13.2298584
4.494,-12.65100098
4.495,-11.46618652
4.496,-10
4.497,-10.25231934
4.498,-10.29803467
4.499,-9.906860352
4.5,-9
4.501,-9.394165039
4.502,-9.278320313
4.503,-8.734375
4.504,-8
4.505,-9.019348145
4.506,-9.839416504
4.507,-10.20440674
4.508,-10
4.509,-10.99291992
4.51,-11.29547119
4.511,-10.90966797
4.512,-10
4.513,-10.4699707
4.514,-10.37158203
4.515,-9.531799316
4.516,-8
4.517,-7.768188477
4.518,-7.204467773
4.519,-6.522094727
4.52,-6
4.521,-7.514282227
4.522,-8.958312988
4.523,-9.881225586
4.524,-10
4.525,-10.99810791
4.526,-11.0256958
4.527,-10.23388672
4.528,-9
4.529,-9.433227539
4.53,-9.69744873
4.531,-9.59362793
4.532,-9
4.533,-9.642578125
4.534,-9.619567871
4.535,-8.976928711
4.536,-8
4.537,-8.755554199
4.538,-9.434692383
4.539,-9.885742188
4.54,-10
4.541,-11.43914795
4.542,-12.14306641
4.543,-11.95935059
4.544,-11
4.545,-11.26049805
4.546,-10.97943115
4.547,-10.18041992
4.548,-9
4.549,-9.342346191
4.55,-9.317810059
4.551,-8.84161377
4.552,-8
4.553,-8.701477051
4.554,-9.104614258
4.555,-9.171447754
4.556,-9
4.557,-10.45471191
4.558,-11.56585693
4.559,-12.1138916
4.56,-12
4.561,-12.94317627
4.562,-12.93865967
4.563,-11.89532471
4.564,-10
4.565,-9.352722168
4.566,-8.337646484
4.567,-7.133544922
4.568,-6
4.569,-6.882507324
4.57,-7.829101563
4.571,-8.586425781
4.572,-9
4.573,-10.7208252
4.574,-11.69195557
4.575,-11.75372314
4.576,-11
4.577,-11.40447998
4.578,-11.18560791
4.579,-10.34692383
4.58,-9
4.581,-9.02166748
4.582,-8.518737793
4.583,-7.448303223
4.584,-6
4.585,-6.233581543
4.586,-6.452514648
4.587,-6.691833496
4.588,-7
4.589,-9.06439209
4.59,-10.67150879
4.591,-11.38189697
4.592,-11
4.593,-11.32061768
4.594,-10.5802002
4.595,-8.993835449
4.596,-7
4.597,-6.786315918
4.598,-6.619262695
4.599,-6.38873291
4.6,-6
4.601,-7.113525391
4.602,-7.681030273
4.603,-7.583984375
4.604,-7
4.605,-7.992614746
4.606,-8.847595215
4.607,-9.534362793
4.608,-10
4.609,-11.83483887
4.61,-12.79284668
4.611,-12.51409912
4.612,-11
4.613,-10.32006836
4.614,-8.986083984
4.615,-7.393859863
4.616,-6
4.617,-6.829772949
4.618,-7.869995117
4.619,-8.701293945
4.62,-9
4.621,-10.33990479
4.622,-10.73059082
4.623,-10.18719482
4.624,-9
4.625,-9.264404297
4.626,-9.217163086
4.627,-8.790405273
4.628,-8
4.629,-8.666442871
4.63,-8.88470459
4.631,-8.616638184
4.632,-8
4.633,-8.943359375
4.634,-9.518615723
4.635,-9.545837402
4.636,-9
4.637,-9.724731445
4.638,-9.892089844
4.639,-9.56829834
4.64,-9
4.641,-10.18383789
4.642,-11.21801758
4.643,-11.87695313
4.644,-12
4.645,-13.22613525
4.646,-13.49157715
4.647,-12.68280029
4.648,-11
4.649,-10.57507324
4.65,-9.810974121
4.651,-8.878845215
4.652,-8
4.653,-9.066650391
4.654,-10.07751465
4.655,-10.762146
4.656,-11
4.657,-12.53613281
4.658,-13.40490723
4.659,-13.52288818
4.66,-13
4.661,-13.7578125
4.662,-13.89904785
4.663,-13.30279541
4.664,-12
4.665,-11.87677002
4.666,-11.09777832
4.667,-9.716430664
4.668,-8
4.669,-8.042480469
4.67,-8.088500977
4.671,-8.083496094
4.672,-8
4.673,-9.528442383
4.674,-10.52185059
4.675,-10.68725586
4.676,-10
4.677,-10.39825439
4.678,-10.12371826
4.679,-9.260192871
4.68,-8
4.681,-8.271972656
4.682,-8.110046387
4.683,-7.338745117
4.684,-6
4.685,-6.077270508
4.686,-5.85369873
4.687,-5.437255859
4.688,-5
4.689,-6.37097168
4.69,-7.405578613
4.691,-7.684020996
4.692,-7
4.693,-7.161682129
4.694,-6.387207031
4.695,-4.872192383
4.696,-3
4.697,-2.881774902
4.698,-2.639831543
4.699,-2.051757813
4.7,-1
4.701,-1.264953613
4.702,-0.961364746
4.703,-0.129699707
4.704,1
4.705,0.434814453
4.706,0.111022949
4.707,0.264160156
4.708,1
4.709,0.521728516
4.71,0.731384277
4.711,1.620117188
4.712,3
4.713,2.904602051
4.714,3.276123047
4.715,4.303649902
4.716,6
4.717,6.441650391
4.718,7.3828125
4.719,8.671691895
4.72,10
4.721,9.330932617
4.722,8.601074219
4.723,8.089050293
4.724,8
4.725,6.683959961
4.726,6.212280273
4.727,6.703125
4.728,8
4.729,8.042419434
4.73,8.590698242
4.731,9.621337891
4.732,11
4.733,10.78771973
4.734,10.87054443
4.735,11.30957031
4.736,12
4.737,11.01049805
4.738,10.26159668
4.739,9.907165527
4.74,10
4.741,8.787780762
4.742,8.324951172
4.743,8.767150879
4.744,10
4.745,9.960510254
4.746,10.35632324
4.747,11.08868408
4.748,12
4.749,11.22845459
4.75,10.84222412
4.751,11.09613037
4.752,12
4.753,11.57965088
4.754,11.5526123
4.755,11.76647949
4.756,12
4.757,10.38226318
4.758,9.079650879
4.759,8.536560059
4.76,9
4.761,8.69519043
4.762,9.444824219
4.763,11.02935791
4.764,13
4.765,13.15014648
4.766,13.28314209
4.767,13.54052734
4.768,14
4.769,12.89056396
4.77,12.18713379
4.771,11.93719482
4.772,12
4.773,10.44805908
4.774,9.291992188
4.775,8.778259277
4.776,9
4.777,8.133483887
4.778,8.078063965
4.779,8.783081055
4.78,10
4.781,9.678771973
4.782,9.694641113
4.783,10.14978027
4.784,11
4.785,10.31939697
4.786,9.958068848
4.787,9.897033691
4.788,10
4.789,8.399414063
4.79,7.18548584
4.791,6.674560547
4.792,7
4.793,6.342834473
4.794,6.568908691
4.795,7.564880371
4.796,9
4.797,8.74206543
4.798,8.60723877
4.799,8.687744141
4.8,9
4.801,7.751281738
4.802,6.951721191
4.803,6.724914551
4.804,7
4.805,5.86730957
4.806,5.271118164
4.807,5.329650879
4.808,6
4.809,5.375671387
4.81,5.351867676
4.811,5.944030762
4.812,7
4.813,6.555419922
4.814,6.526184082
4.815,7.021118164
4.816,8
4.817,7.569213867
4.818,7.619384766
4.819,8.15625
4.82,9
4.821,8.150756836
4.822,7.480957031
4.823,7.092895508
4.824,7
4.825,5.434509277
4.826,4.476013184
4.827,4.335266113
4.828,5
4.829,4.544128418
4.83,4.796020508
4.831,5.693115234
4.832,7
4.833,6.674743652
4.834,6.549926758
4.835,6.678466797
4.836,7
4.837,5.654907227
4.838,4.625427246
4.839,4.069519043
4.84,4
4.841,2.609863281
4.842,1.917541504
4.843,2.071594238
4.844,3
4.845,2.724304199
4.846,3.032714844
4.847,3.857421875
4.848,5
4.849,4.494750977
4.85,4.268371582
4.851,4.450073242
4.852,5
4.853,4.008789063
4.854,3.341918945
4.855,3.030029297
4.856,3
4.857,1.443481445
4.858,0.451293945
4.859,0.291870117
4.86,1
4.861,0.644470215
4.862,0.981201172
4.863,1.858581543
4.864,3
4.865,2.421936035
4.866,2.104187012
4.867,2.278198242
4.868,3
4.869,2.395935059
4.87,2.276245117
4.871,2.549133301
4.872,3
4.873,1.721557617
4.874,0.77746582
4.875,0.490905762
4.876,1
4.877,0.480407715
4.878,0.755554199
4.879,1.694274902
4.88,3
4.881,2.651672363
4.882,2.591491699
4.883,3.028442383
4.884,4
4.885,3.607177734
4.886,3.602966309
4.887,3.826477051
4.888,4
4.889,2.192871094
4.89,0.498046875
4.891,-0.661254883
4.892,-1
4.893,-2.18927002
4.894,-2.301513672
4.895,-1.44708252
4.896,0
4.897,-0.132324219
4.898,-0.067077637
4.899,0.297180176
4.9,1
4.901,0.259643555
4.902,0.027587891
4.903,0.335510254
4.904,1
4.905,0.024291992
4.906,-0.709289551
4.907,-1.062805176
4.908,-1
4.909,-2.302001953
4.91,-2.962646484
4.911,-2.844726563
4.912,-2
4.913,-2.326293945
4.914,-1.919494629
4.915,-0.745605469
4.916,1
4.917,1.210449219
4.918,1.550415039
4.919,1.87878418
4.92,2
4.921,0.048583984
4.922,-1.849609375
4.923,-3.28704834
4.924,-4
4.925,-5.644104004
4.926,-6.184814453
4.927,-5.567077637
4.928,-4
4.929,-3.577453613
4.93,-2.546691895
4.931,-0.958496094
4.932,1
4.933,1.306030273
4.934,1.76550293
4.935,2.370910645
4.936,3
4.937,1.766601563
4.938,0.698974609
4.939,0.066223145
4.94,0
4.941,-1.247436523
4.942,-1.670654297
4.943,-1.196777344
4.944,0
4.945,-0.146606445
4.946,0.14654541
4.947,0.887084961
4.948,2
4.949,1.628356934
4.95,1.775939941
4.951,2.592163086
4.952,4
4.953,3.997070313
4.954,4.369445801
4.955,5.081115723
4.956,6
4.957,5.236999512
4.958,4.842041016
4.959,5.072998047
4.96,6
4.961,5.75201416
4.962,6.213256836
4.963,7.36138916
4.964,9
4.965,9.113769531
4.966,9.60345459
4.967,10.58374023
4.968,12
4.969,11.88287354
4.97,12.04998779
4.971,12.46972656
4.972,13
4.973,11.7477417
4.974,10.80230713
4.975,10.49816895
4.976,11
4.977,10.5100708
4.978,10.93493652
4.979,12.20080566
4.98,14
4.981,14.18127441
4.982,14.53985596
4.983,15.14782715
4.984,16
4.985,15.26470947
4.986,14.94934082
4.987,15.20263672
4.988,16
4.989,15.46057129
4.99,15.56726074
4.991,16.44512939
4.992,18
4.993,18.19482422
4.994,18.80792236
4.995,19.78649902
4.996,21
4.997,20.57458496
4.998,20.61651611
4.999,21.41113281
5,23
5.001,23.40551758
5.002,24.35394287
5.003,25.65332031
5.004,27
5.005,26.39324951
5.006,25.85595703
5.007,25.68145752
5.008,26
5.009,24.99047852
5.01,24.54138184
5.011,24.60717773
5.012,25
5.013,23.79962158
5.014,23.07452393
5.015,23.11547852
5.016,24
5.017,23.80731201
5.018,24.25970459
5.019,25.11633301
5.02,26
5.021,24.87133789
5.022,23.75744629
5.023,23.03771973
5.024,23
5.025,22.01757813
5.026,22.10150146
5.027,23.2074585
5.028,25
5.029,25.3081665
5.03,25.89007568
5.031,26.79205322
5.032,28
5.033,27.68981934
5.034,27.80322266
5.035,28.32666016
5.036,29
5.037,27.71679688
5.038,26.26135254
5.039,24.68096924
5.04,23
5.041,19.5335083
5.042,16.50256348
5.043,14.2746582
5.044,13
5.045,10.90014648
5.046,9.926818848
5.047,10.05291748
5.048,11
5.049,10.61462402
5.05,10.58605957
5.051,10.78594971
5.052,11
5.053,9.281494141
5.054,7.605102539
5.055,6.155700684
5.056,5
5.057,2.395019531
5.058,0.430297852
5.059,-0.696105957
5.06,-1
5.061,-2.389099121
5.062,-2.97845459
5.063,-2.784545898
5.064,-2
5.065,-2.638305664
5.066,-2.842773438
5.067,-2.589782715
5.068,-2
5.069,-3.010742188
5.07,-3.710510254
5.071,-4.024475098
5.072,-4
5.073,-5.466430664
5.074,-6.374755859
5.075,-6.544189453
5.076,-6
5.077,-6.662597656
5.078,-6.671447754
5.079,-6.059204102
5.08,-5
5.081,-5.438293457
5.082,-5.438598633
5.083,-4.917541504
5.084,-4
5.085,-4.69543457
5.086,-5.23626709
5.087,-5.651428223
5.088,-6
5.089,-7.985839844
5.09,-9.374023438
5.091,-9.753112793
5.092,-9
5.093,-9.033813477
5.094,-8.179626465
5.095,-6.708862305
5.096,-5
5.097,-5.066894531
5.098,-4.912475586
5.099,-4.251831055
5.1,-3
5.101,-3.048950195
5.102,-2.722106934
5.103,-2.263366699
5.104,-2
5.105,-3.816467285
5.106,-5.567871094
5.107,-6.741943359
5.108,-7
5.109,-7.9921875
5.11,-7.937072754
5.111,-7.107177734
5.112,-6
5.113,-6.75402832
5.114,-7.519348145
5.115,-8.01171875
5.116,-8
5.117,-9.083862305
5.118,-9.351379395
5.119,-8.882263184
5.12,-8
5.121,-8.725708008
5.122,-9.234191895
5.123,-9.351806641
5.124,-9
5.125,-9.92565918
5.126,-10.22161865
5.127,-9.865905762
5.128,-9
5.129,-9.529541016
5.13,-9.458740234
5.131,-8.594360352
5.132,-7
5.133,-6.809204102
5.134,-6.400390625
5.135,-6.027099609
5.136,-6
5.137,-8.401550293
5.138,-11.00518799
5.139,-13.30456543
5.14,-15
5.141,-18.08410645
5.142,-20.56530762
5.143,-22.47802734
5.144,-24
5.145,-27.29351807
5.146,-30.03942871
5.147,-31.70544434
5.148,-32
5.149,-33.00500488
5.15,-32.99468994
5.151,-32.425354
5.152,-32
5.153,-34.21356201
5.154,-37.2477417
5.155,-40.70831299
5.156,-44
5.157,-48.16687012
5.158,-50.5512085
5.159,-50.54138184
5.16,-48
5.161,-44.8637085
5.162,-39.56488037
5.163,-32.44311523
5.164,-24
5.165,-16.4286499
5.166,-8.083435059
5.167,1.048828125
5.168,11
5.169,20.18084717
5.17,30.82745361
5.171,43.37670898
5.172,58
5.173,72.88916016
5.174,89.75732422
5.175,108.3183594
5.176,128
5.177,146.3747559
5.178,164.7364502
5.179,182.5340576
5.18,199
5.181,211.5227051
5.182,221.2333984
5.183,227.5687256
5.184,230
5.185,226.4401855
5.186,218.7003174
5.187,206.8956299
5.188,191
5.189,169.2601318
5.19,143.8494873
5.191,115.6414795
5.192,86
5.193,55.11828613
5.194,27.19104004
5.195,4.407836914
5.196,-12
5.197,-23.7442627
5.198,-30.00378418
5.199,-32.44885254
5.2,-33
5.201,-34.83227539
5.202,-36.5925293
5.203,-37.87109375
5.204,-38
5.205,-38.1953125
5.206,-36.44366455
5.207,-33.08862305
5.208,-29
5.209,-26.8548584
5.21,-25.22186279
5.211,-24.03417969
5.212,-23
5.213,-23.51580811
5.214,-23.22460938
5.215,-21.96044922
5.216,-20
5.217,-19.62872314
5.218,-19.09875488
5.219,-18.52520752
5.22,-18
5.221,-19.35766602
5.222,-20.23455811
5.223,-20.42852783
5.224,-20
5.225,-20.98895264
5.226,-21.26538086
5.227,-20.87078857
5.228,-20
5.229,-20.68023682
5.23,-20.75048828
5.231,-20.14459229
5.232,-19
5.233,-19.32373047
5.234,-19.21026611
5.235,-18.70629883
5.236,-18
5.237,-18.99920654
5.238,-19.77532959
5.239,-20.1282959
5.24,-20
5.241,-21.15539551
5.242,-21.71740723
5.243,-21.62890625
5.244,-21
5.245,-21.69238281
5.246,-21.82635498
5.247,-21.25378418
5.248,-20
5.249,-19.93951416
5.25,-19.33007813
5.251,-18.26574707
5.252,-17
5.253,-17.50567627
5.254,-17.93884277
5.255,-18.13067627
5.256,-18
5.257,-19.24102783
5.258,-19.86877441
5.259,-19.75610352
5.26,-19
5.261,-19.52490234
5.262,-19.53210449
5.263,-18.99127197
5.264,-18
5.265,-18.42437744
5.266,-18.40466309
5.267,-17.88720703
5.268,-17
5.269,-17.67364502
5.27,-18.09619141
5.271,-18.19787598
5.272,-18
5.273,-19.24694824
5.274,-19.92944336
5.275,-19.84216309
5.276,-19
5.277,-19.29772949
5.278,-18.98162842
5.279,-18.13647461
5.28,-17
5.281,-17.54974365
5.282,-17.95611572
5.283,-18.10614014
5.284,-18
5.285,-19.42102051
5.286,-20.44268799
5.287,-20.95050049
5.288,-21
5.289,-22.42822266
5.29,-23.3180542
5.291,-23.51202393
5.292,-23
5.293,-23.58666992
5.294,-23.40594482
5.295,-22.46514893
5.296,-21
5.297,-21.06341553
5.298,-20.93572998
5.299,-20.58416748
5.3,-20
5.301,-20.85345459
5.302,-21.06292725
5.303,-20.41174316
5.304,-19
5.305,-18.89147949
5.306,-18.53887939
5.307,-18.16705322
5.308,-18
5.309,-19.80358887
5.31,-21.38354492
5.311,-22.21923828
5.312,-22
5.313,-22.41070557
5.314,-21.67675781
5.315,-20.04211426
5.316,-18
5.317,-17.75939941
5.318,-17.61010742
5.319,-17.40643311
5.32,-17
5.321,-17.98974609
5.322,-18.33538818
5.323,-17.9387207
5.324,-17
5.325,-17.57391357
5.326,-17.95001221
5.327,-18.09576416
5.328,-18
5.329,-19.34210205
5.33,-20.05413818
5.331,-19.91931152
5.332,-19
5.333,-19.27954102
5.334,-19.1005249
5.335,-18.59912109
5.336,-18
5.337,-19.19921875
5.338,-20.24346924
5.339,-20.88153076
5.34,-21
5.341,-22.32049561
5.342,-22.9241333
5.343,-22.76434326
5.344,-22
5.345,-22.57391357
5.346,-22.65142822
5.347,-22.12365723
5.348,-21
5.349,-21.09277344
5.35,-20.55389404
5.351,-19.42681885
5.352,-18
5.353,-18.37451172
5.354,-18.86798096
5.355,-19.4352417
5.356,-20
5.357,-22.11633301
5.358,-23.53411865
5.359,-23.85223389
5.36,-23
5.361,-22.92626953
5.362,-22.03546143
5.363,-20.60369873
5.364,-19
5.365,-19.21240234
5.366,-19.28833008
5.367,-18.93267822
5.368,-18
5.369,-18.25183105
5.37,-17.88751221
5.371,-17.03314209
5.372,-16
5.373,-16.79858398
5.374,-17.54443359
5.375,-17.9942627
5.376,-18
5.377,-19.2543335
5.378,-19.82324219
5.379,-19.67810059
5.38,-19
5.381,-19.73754883
5.382,-20.03912354
5.383,-19.78253174
5.384,-19
5.385,-19.56616211
5.386,-19.70800781
5.387,-19.46826172
5.388,-19
5.389,-20.12799072
5.39,-20.83575439
5.391,-20.8270874
5.392,-20
5.393,-20.17193604
5.394,-19.59393311
5.395,-18.42590332
5.396,-17
5.397,-17.34228516
5.398,-17.5904541
5.399,-17.52160645
5.4,-17
5.401,-17.70849609
5.402,-17.73284912
5.403,-17.07849121
5.404,-16
5.405,-16.54333496
5.406,-16.9520874
5.407,-17.12701416
5.408,-17
5.409,-18.21813965
5.41,-18.71087646
5.411,-18.27838135
5.412,-17
5.413,-16.86224365
5.414,-16.20074463
5.415,-15.1607666
5.416,-14
5.417,-14.67095947
5.418,-15.31115723
5.419,-15.76727295
5.42,-16
5.421,-17.74780273
5.422,-19.05584717
5.423,-19.79064941
5.424,-20
5.425,-21.51861572
5.426,-22.43585205
5.427,-22.59979248
5.428,-22
5.429,-22.43292236
5.43,-22.02764893
5.431,-20.79516602
5.432,-19
5.433,-18.75939941
5.434,-18.45397949
5.435,-18.16790771
5.436,-18
5.437,-19.68530273
5.438,-21.11169434
5.439,-21.92828369
5.44,-22
5.441,-23.10797119
5.442,-23.41870117
5.443,-22.97723389
5.444,-22
5.445,-22.45458984
5.446,-22.48638916
5.447,-21.98516846
5.448,-21
5.449,-21.43884277
5.45,-21.52288818
5.451,-21.31115723
5.452,-21
5.453,-22.50140381
5.454,-23.84692383
5.455,-24.74468994
5.456,-25
5.457,-26.25531006
5.458,-26.49523926
5.459,-25.66113281
5.46,-24
5.461,-23.65686035
5.462,-22.99932861
5.463,-22.09124756
5.464,-21
5.465,-21.46435547
5.466,-21.39849854
5.467,-20.55822754
5.468,-19
5.469,-18.76086426
5.47,-18.23583984
5.471,-17.59216309
5.472,-17
5.473,-18.21368408
5.474,-19.03924561
5.475,-19.02520752
5.476,-18
5.477,-17.84991455
5.478,-16.93701172
5.479,-15.53515625
5.48,-14
5.481,-14.27093506
5.482,-14.27374268
5.483,-13.58477783
5.484,-12
5.485,-11.36639404
5.486,-10.06488037
5.487,-8.449829102
5.488,-7
5.489,-7.761474609
5.49,-8.684387207
5.491,-9.242248535
5.492,-9
5.493,-9.500549316
5.494,-8.83026123
5.495,-7.166931152
5.496,-5
5.497,-4.585021973
5.498,-4.219238281
5.499,-3.744506836
5.5,-3
5.501,-3.625610352
5.502,-3.63470459
5.503,-3.004638672
5.504,-2
5.505,-2.715637207
5.506,-3.383483887
5.507,-3.859069824
5.508,-4
5.509,-5.410461426
5.51,-5.959655762
5.511,-5.446044922
5.512,-4
5.513,-3.726501465
5.514,-3.018188477
5.515,-2.039550781
5.516,-1
5.517,-1.780151367
5.518,-2.361083984
5.519,-2.464904785
5.52,-2
5.521,-2.789855957
5.522,-2.996704102
5.523,-2.664733887
5.524,-2
5.525,-2.953918457
5.526,-3.580688477
5.527,-3.637145996
5.528,-3
5.529,-3.417663574
5.53,-2.976623535
5.531,-1.728637695
5.532,0
5.533,0.031616211
5.534,0.039123535
5.535,0.02557373
5.536,0
5.537,-1.712463379
5.538,-2.950683594
5.539,-3.399902344
5.54,-3
5.541,-3.625976563
5.542,-3.453796387
5.543,-2.518798828
5.544,-1
5.545,-0.848144531
5.546,-0.164611816
5.547,1.147705078
5.548,3
5.549,3.420898438
5.55,4.15802002
5.551,5.101013184
5.552,6
5.553,4.876159668
5.554,3.670471191
5.555,2.645690918
5.556,2
5.557,0.123535156
5.558,-0.874450684
5.559,-0.854187012
5.56,0
5.561,-0.43737793
5.562,-0.519592285
5.563,-0.340637207
5.564,0
5.565,-1.260314941
5.566,-1.988464355
5.567,-1.897583008
5.568,-1
5.569,-1.32409668
5.57,-1.26171875
5.571,-1.058837891
5.572,-1
5.573,-2.954406738
5.574,-4.746398926
5.575,-5.871398926
5.576,-6
5.577,-6.799316406
5.578,-6.400390625
5.579,-4.985229492
5.58,-3
5.581,-2.661193848
5.582,-2.248596191
5.583,-1.696838379
5.584,-1
5.585,-1.959594727
5.586,-2.637695313
5.587,-2.960754395
5.588,-3
5.589,-4.566467285
5.59,-5.580932617
5.591,-5.750915527
5.592,-5
5.593,-5.214538574
5.594,-4.640319824
5.595,-3.459228516
5.596,-2
5.597,-2.28692627
5.598,-2.36517334
5.599,-1.975708008
5.6,-1
5.601,-1.239318848
5.602,-0.863708496
5.603,-0.006286621
5.604,1
5.605,0.086486816
5.606,-0.86126709
5.607,-1.61315918
5.608,-2
5.609,-3.673339844
5.61,-4.586914063
5.611,-4.641723633
5.612,-4
5.613,-4.681396484
5.614,-4.898925781
5.615,-4.638427734
5.616,-4
5.617,-4.870544434
5.618,-5.356994629
5.619,-5.378173828
5.62,-5
5.621,-6.075500488
5.622,-6.656982422
5.623,-6.61328125
5.624,-6
5.625,-6.731140137
5.626,-6.967651367
5.627,-6.691162109
5.628,-6
5.629,-6.741088867
5.63,-6.913574219
5.631,-6.325622559
5.632,-5
5.633,-4.875061035
5.634,-4.216308594
5.635,-3.164245605
5.636,-2
5.637,-2.718261719
5.638,-3.411437988
5.639,-3.874023438
5.64,-4
5.641,-5.500915527
5.642,-6.370483398
5.643,-6.5
5.644,-6
5.645,-6.815368652
5.646,-7.096008301
5.647,-6.792297363
5.648,-6
5.649,-6.628295898
5.65,-6.82409668
5.651,-6.56842041
5.652,-6
5.653,-7.036499023
5.654,-7.781799316
5.655,-8.10534668
5.656,-8
5.657,-9.252807617
5.658,-9.889709473
5.659,-9.782653809
5.66,-9
5.661,-9.447387695
5.662,-9.269226074
5.663,-8.419311523
5.664,-7
5.665,-6.921875
5.666,-6.344787598
5.667,-5.29083252
5.668,-4
5.669,-4.55456543
5.67,-5.242797852
5.671,-6.061462402
5.672,-7
5.673,-9.678527832
5.674,-11.82666016
5.675,-12.98883057
5.676,-13
5.677,-13.72332764
5.678,-13.45159912
5.679,-12.41809082
5.68,-11
5.681,-11.24963379
5.682,-11.27374268
5.683,-10.87384033
5.684,-10
5.685,-10.49847412
5.686,-10.57849121
5.687,-10.33770752
5.688,-10
5.689,-11.4552002
5.69,-12.65264893
5.691,-13.23327637
5.692,-13
5.693,-13.69036865
5.694,-13.46362305
5.695,-12.45166016
5.696,-11
5.697,-11.19018555
5.698,-11.18621826
5.699,-10.81610107
5.7,-10
5.701,-10.5043335
5.702,-10.44342041
5.703,-9.857666016
5.704,-9
5.705,-9.88659668
5.706,-10.64398193
5.707,-11.06481934
5.708,-11
5.709,-12.09576416
5.71,-12.30554199
5.711,-11.53692627
5.712,-10
5.713,-9.807006836
5.714,-9.32208252
5.715,-8.663146973
5.716,-8
5.717,-9.182250977
5.718,-10.21160889
5.719,-10.84356689
5.72,-11
5.721,-12.45233154
5.722,-13.28277588
5.723,-13.42736816
5.724,-13
5.725,-13.90618896
5.726,-14.25561523
5.727,-13.93780518
5.728,-13
5.729,-13.32672119
5.73,-13.07501221
5.731,-12.24389648
5.732,-11
5.733,-11.29797363
5.734,-11.27606201
5.735,-10.83172607
5.736,-10
5.737,-10.63806152
5.738,-10.85974121
5.739,-10.61108398
5.74,-10
5.741,-10.92614746
5.742,-11.47125244
5.743,-11.49273682
5.744,-11
5.745,-11.84295654
5.746,-12.12799072
5.747,-11.80596924
5.748,-11
5.749,-11.644104
5.75,-11.87304688
5.751,-11.62304688
5.752,-11
5.753,-11.94720459
5.754,-12.62677002
5.755,-12.97253418
5.756,-13
5.757,-14.45672607
5.758,-15.24578857
5.759,-15.09832764
5.76,-14
5.761,-13.89996338
5.762,-13.08551025
5.763,-11.70141602
5.764,-10
5.765,-9.934936523
5.766,-9.535339355
5.767,-8.569213867
5.768,-7
5.769,-6.737426758
5.77,-6.041442871
5.771,-5.047119141
5.772,-4
5.773,-4.825500488
5.774,-5.473754883
5.775,-5.592163086
5.776,-5
5.777,-5.487792969
5.778,-5.215637207
5.779,-4.291259766
5.78,-3
5.781,-3.37109375
5.782,-3.463378906
5.783,-3.036315918
5.784,-2
5.785,-2.204528809
5.786,-1.840454102
5.787,-1.017211914
5.788,0
5.789,-0.77532959
5.79,-1.365844727
5.791,-1.486816406
5.792,-1
5.793,-1.695556641
5.794,-1.704833984
5.795,-1.071716309
5.796,0
5.797,-0.432250977
5.798,-0.378356934
5.799,0.415161133
5.8,2
5.801,2.442810059
5.802,3.43145752
5.803,4.736450195
5.804,6
5.805,5.194946289
5.806,4.341247559
5.807,3.839782715
5.808,4
5.809,3.207336426
5.81,3.483032227
5.811,4.837036133
5.812,7
5.813,7.846130371
5.814,9.136047363
5.815,10.88781738
5.816,13
5.817,13.51989746
5.818,14.24853516
5.819,15.13525391
5.82,16
5.821,14.93292236
5.822,13.93127441
5.823,13.2520752
5.824,13
5.825,11.39379883
5.826,10.35858154
5.827,9.933776855
5.828,10
5.829,8.677307129
5.83,7.960998535
5.831,8.0625
5.832,9
5.833,8.877990723
5.834,9.459350586
5.835,10.60119629
5.836,12
5.837,11.63452148
5.838,11.39575195
5.839,11.48272705
5.84,12
5.841,11.22875977
5.842,11.14538574
5.843,11.79864502
5.844,13
5.845,12.73309326
5.846,12.80102539
5.847,13.24383545
5.848,14
5.849,13.22332764
5.85,12.82293701
5.851,12.81799316
5.852,13
5.853,11.32611084
5.854,9.568359375
5.855,7.777404785
5.856,6
5.857,2.631958008
5.858,-0.052978516
5.859,-1.638366699
5.86,-2
5.861,-3.023498535
5.862,-2.996398926
5.863,-2.17755127
5.864,-1
5.865,-1.607910156
5.866,-2.197143555
5.867,-2.665283203
5.868,-3
5.869,-4.989501953
5.87,-6.688476563
5.871,-8.009887695
5.872,-9
5.873,-11.42498779
5.874,-13.2041626
5.875,-14.07208252
5.876,-14
5.877,-14.90478516
5.878,-15.0657959
5.879,-14.66674805
5.88,-14
5.881,-15.0078125
5.882,-15.66943359
5.883,-15.69866943
5.884,-15
5.885,-15.42584229
5.886,-15.23272705
5.887,-14.63677979
5.888,-14
5.889,-15.33111572
5.89,-16.64007568
5.891,-17.60186768
5.892,-18
5.893,-19.4989624
5.894,-20.12762451
5.895,-19.88934326
5.896,-19
5.897,-19.43341064
5.898,-19.29315186
5.899,-18.45727539
5.9,-17
5.901,-16.91088867
5.902,-16.54736328
5.903,-16.13909912
5.904,-16
5.905,-18.04290771
5.906,-20.17718506
5.907,-21.94451904
5.908,-23
5.909,-24.9005127
5.91,-25.64471436
5.911,-25.24676514
5.912,-24
5.913,-23.99615479
5.914,-23.49859619
5.915,-22.47558594
5.916,-21
5.917,-20.94958496
5.918,-20.53186035
5.919,-19.8081665
5.92,-19
5.921,-20.03918457
5.922,-21.02191162
5.923,-21.72155762
5.924,-22
5.925,-23.49249268
5.926,-24.19580078
5.927,-23.99139404
5.928,-23
5.929,-23.15216064
5.93,-22.68060303
5.931,-21.58569336
5.932,-20
5.933,-19.80249023
5.934,-19.2020874
5.935,-18.20898438
5.936,-17
5.937,-17.47479248
5.938,-17.84161377
5.939,-18.01776123
5.94,-18
5.941,-19.45263672
5.942,-20.3692627
5.943,-20.54510498
5.944,-20
5.945,-20.59960938
5.946,-20.57745361
5.947,-19.98132324
5.948,-19
5.949,-19.57775879
5.95,-19.83129883
5.951,-19.62689209
5.952,-19
5.953,-19.91009521
5.954,-20.51928711
5.955,-20.82958984
5.956,-21
5.957,-23.11767578
5.958,-25.15362549
5.959,-26.82965088
5.96,-28
5.961,-30.58526611
5.962,-32.51031494
5.963,-33.62805176
5.964,-34
5.965,-35.8046875
5.966,-36.97949219
5.967,-37.34765625
5.968,-37
5.969,-38.28338623
5.97,-39.56268311
5.971,-41.06744385
5.972,-43
5.973,-47.19476318
5.974,-51.29870605
5.975,-54.68530273
5.976,-57
5.977,-59.94580078
5.978,-61.6741333
5.979,-62.09777832
5.98,-61
5.981,-59.56298828
5.982,-55.2144165
5.983,-47.52484131
5.984,-37
5.985,-26.72064209
5.986,-16.51489258
5.987,-7.56439209
5.988,0
5.989,5.787231445
5.99,14.07855225
5.991,27.22625732
5.992,46
5.993,67.2467041
5.994,89.63989258
5.995,109.4730225
5.996,124
5.997,131.1439209
5.998,135.1848145
5.999,140.2382813
6,150
6.001,164.3005371
6.002,183.5938721
6.003,203.9106445
6.004,220
6.005,225.673584
6.006,220.7171631
6.007,205.9158936
6.008,184
6.009,156.7189941
6.01,128.9555664
6.011,102.5661621
6.012,78
6.013,53.26647949
6.014,30.0479126
6.015,8.730407715
6.016,-10
6.017,-27.08282471
6.018,-40.1104126
6.019,-48.92077637
6.02,-54
6.021,-57.85083008
6.022,-59.35894775
6.023,-58.95037842
6.024,-57
6.025,-55.53143311
6.026,-52.89831543
6.027,-49.26586914
6.028,-45
6.029,-42.25262451
6.03,-39.39807129
6.031,-36.56964111
6.032,-34
6.033,-33.66497803
6.034,-33.63641357
6.035,-33.77478027
6.036,-34
6.037,-35.99346924
6.038,-37.45172119
6.039,-38.12091064
6.04,-38
6.041,-39.01727295
6.042,-39.13378906
6.043,-38.38720703
6.044,-37
6.045,-37.07446289
6.046,-36.53845215
6.047,-35.44744873
6.048,-34
6.049,-34.20147705
6.05,-33.92352295
6.051,-33.13024902
6.052,-32
6.053,-32.54864502
6.054,-32.89324951
6.055,-33.02349854
6.056,-33
6.057,-34.53741455
6.058,-35.54559326
6.059,-35.7208252
6.06,-35
6.061,-35.21008301
6.062,-34.67626953
6.063,-33.52142334
6.064,-32
6.065,-32.02886963
6.066,-31.78527832
6.067,-31.10742188
6.068,-30
6.069,-30.30865479
6.07,-30.33361816
6.071,-30.1661377
6.072,-30
6.073,-31.65057373
6.074,-33.09631348
6.075,-33.95727539
6.076,-34
6.077,-34.86627197
6.078,-34.71191406
6.079,-33.63653564
6.08,-32
6.081,-31.9173584
6.082,-31.7388916
6.083,-31.43133545
6.084,-31
6.085,-32.15167236
6.086,-32.94018555
6.087,-33.21154785
6.088,-33
6.089,-34.11224365
6.09,-34.68664551
6.091,-34.62390137
6.092,-34
6.093,-34.68927002
6.094,-34.91497803
6.095,-34.65667725
6.096,-34
6.097,-34.72491455
6.098,-34.88250732
6.099,-34.29168701
6.1,-33
6.101,-32.93371582
6.102,-32.45629883
6.103,-31.72723389
6.104,-31
6.105,-32.14898682
6.106,-33.2166748
6.107,-33.89331055
6.108,-34
6.109,-35.19134521
6.11,-35.56591797
6.111,-35.10375977
6.112,-34
6.113,-34.20678711
6.114,-33.95092773
6.115,-33.18231201
6.116,-32
6.117,-32.29986572
6.118,-32.35064697
6.119,-32.19812012
6.12,-32
6.121,-33.57458496
6.122,-34.94818115
6.123,-35.81549072
6.124,-36
6.125,-37.14483643
6.126,-37.33062744
6.127,-36.53674316
6.128,-35
6.129,-34.76373291
6.13,-34.16046143
6.131,-33.20983887
6.132,-32
6.133,-32.32507324
6.134,-32.29400635
6.135,-31.81292725
6.136,-31
6.137,-31.77606201
6.138,-32.39312744
6.139,-32.80114746
6.14,-33
6.141,-34.64569092
6.142,-35.66687012
6.143,-35.78649902
6.144,-35
6.145,-35.22912598
6.146,-34.84289551
6.147,-34.01507568
6.148,-33
6.149,-33.66204834
6.15,-34.03717041
6.151,-33.84454346
6.152,-33
6.153,-33.32177734
6.154,-33.12542725
6.155,-32.58532715
6.156,-32
6.157,-33.27874756
6.158,-34.44171143
6.159,-35.10614014
6.16,-35
6.161,-35.71630859
6.162,-35.36096191
6.163,-34.00537109
6.164,-32
6.165,-31.4708252
6.166,-30.78234863
6.167,-29.93707275
6.168,-29
6.169,-29.7689209
6.17,-30.38580322
6.171,-30.77459717
6.172,-31
6.173,-32.8314209
6.174,-34.2756958
6.175,-35.04302979
6.176,-35
6.177,-35.8550415
6.178,-35.75054932
6.179,-34.71331787
6.18,-33
6.181,-32.65002441
6.182,-31.98944092
6.183,-31.05657959
6.184,-30
6.185,-30.6987915
6.186,-31.32867432
6.187,-31.77398682
6.188,-32
6.189,-33.65856934
6.19,-34.68707275
6.191,-34.80908203
6.192,-34
6.193,-34.13891602
6.194,-33.5592041
6.195,-32.41900635
6.196,-31
6.197,-31.24029541
6.198,-31.26605225
6.199,-30.87335205
6.2,-30
6.201,-30.41345215
6.202,-30.32043457
6.203,-29.77404785
6.204,-29
6.205,-29.92346191
6.206,-30.68499756
6.207,-31.07952881
6.208,-31
6.209,-32.11950684
6.21,-32.50457764
6.211,-32.08154297
6.212,-31
6.213,-31.19525146
6.214,-30.91430664
6.215,-30.14172363
6.216,-29
6.217,-29.37182617
6.218,-29.48529053
6.219,-29.32489014
6.22,-29
6.221,-30.31744385
6.222,-31.36419678
6.223,-31.94232178
6.224,-32
6.225,-33.26721191
6.226,-33.86572266
6.227,-33.73455811
6.228,-33
6.229,-33.543396
6.23,-33.57061768
6.231,-33.02648926
6.232,-32
6.233,-32.33764648
6.234,-32.25683594
6.235,-31.75695801
6.236,-31
6.237,-31.875
6.238,-32.56878662
6.239,-32.95751953
6.24,-33
6.241,-34.35931396
6.242,-35.0458374
6.243,-34.89526367
6.244,-34
6.245,-34.31109619
6.246,-34.17169189
6.247,-33.67858887
6.248,-33
6.249,-33.93981934
6.25,-34.53601074
6.251,-34.56091309
6.252,-34
6.253,-34.71380615
6.254,-35.01483154
6.255,-35.03167725
6.256,-35
6.257,-36.78430176
6.258,-38.40600586
6.259,-39.53948975
6.26,-40
6.261,-41.46038818
6.262,-42.05389404
6.263,-41.81622314
6.264,-41
6.265,-41.60357666
6.266,-41.8482666
6.267,-41.63800049
6.268,-41
6.269,-41.7713623
6.27,-42.15948486
6.271,-42.1831665
6.272,-42
6.273,-43.46722412
6.274,-44.62121582
6.275,-45.17932129
6.276,-45
6.277,-45.80078125
6.278,-45.69830322
6.279,-44.69256592
6.28,-43
6.281,-42.63018799
6.282,-41.83129883
6.283,-40.58081055
6.284,-39
6.285,-39.01965332
6.286,-38.86773682
6.287,-38.51367188
6.288,-38
6.289,-39.05010986
6.29,-39.57891846
6.291,-39.25775146
6.292,-38
6.293,-37.6776123
6.294,-36.59954834
6.295,-34.93798828
6.296,-33
6.297,-32.77380371
6.298,-32.3526001
6.299,-31.47332764
6.3,-30
6.301,-29.6741333
6.302,-28.6607666
6.303,-27.01483154
6.304,-25
6.305,-24.6340332
6.306,-24.11218262
6.307,-23.26507568
6.308,-22
6.309,-22.02154541
6.31,-21.38494873
6.311,-19.99822998
6.312,-18
6.313,-17.36187744
6.314,-16.32196045
6.315,-14.84008789
6.316,-13
6.317,-12.67681885
6.318,-12.06152344
6.319,-11.12487793
6.32,-10
6.321,-10.59106445
6.322,-11.04614258
6.323,-11.20367432
6.324,-11
6.325,-12.13964844
6.326,-12.61950684
6.327,-12.23632813
6.328,-11
6.329,-10.7925415
6.33,-9.831970215
6.331,-8.157043457
6.332,-6
6.333,-5.410339355
6.334,-4.69128418
6.335,-3.857421875
6.336,-3
6.337,-3.935180664
6.338,-4.692260742
6.339,-5.058349609
6.34,-5
6.341,-6.332336426
6.342,-7.165222168
6.343,-7.385070801
6.344,-7
6.345,-7.786132813
6.346,-7.762756348
6.347,-6.789489746
6.348,-5
6.349,-4.477783203
6.35,-3.650268555
6.351,-2.736328125
6.352,-2
6.353,-3.326599121
6.354,-4.655517578
6.355,-5.613891602
6.356,-6
6.357,-7.541320801
6.358,-8.349609375
6.359,-8.443115234
6.36,-8
6.361,-8.919006348
6.362,-9.201171875
6.363,-8.583618164
6.364,-7
6.365,-6.345092773
6.366,-4.924438477
6.367,-2.995239258
6.368,-1
6.369,-1.086120605
6.37,-1.429138184
6.371,-1.802124023
6.372,-2
6.373,-3.612792969
6.374,-4.535522461
6.375,-4.618591309
6.376,-4
6.377,-4.70111084
6.378,-4.941650391
6.379,-4.691833496
6.38,-4
6.381,-4.67956543
6.382,-4.762268066
6.383,-4.153137207
6.384,-3
6.385,-3.33190918
6.386,-3.415710449
6.387,-3.278198242
6.388,-3
6.389,-4.359619141
6.39,-5.278747559
6.391,-5.497741699
6.392,-5
6.393,-5.713256836
6.394,-5.878356934
6.395,-5.582458496
6.396,-5
6.397,-5.984924316
6.398,-6.473266602
6.399,-6.166992188
6.4,-5
6.401,-4.889038086
6.402,-4.163146973
6.403,-3.073120117
6.404,-2
6.405,-2.969726563
6.406,-4.011657715
6.407,-4.775878906
6.408,-5
6.409,-6.307128906
6.41,-6.697387695
6.411,-6.171203613
6.412,-5
6.413,-5.279663086
6.414,-5.234436035
6.415,-4.80078125
6.416,-4
6.417,-4.659973145
6.418,-4.86932373
6.419,-4.596008301
6.42,-4
6.421,-5.031616211
6.422,-5.797363281
6.423,-6.13885498
6.424,-6
6.425,-7.129394531
6.426,-7.534240723
6.427,-7.11328125
6.428,-6
6.429,-6.190856934
6.43,-5.902404785
6.431,-5.136047363
6.432,-4
6.433,-4.372558594
6.434,-4.339233398
6.435,-3.831726074
6.436,-3
6.437,-3.857788086
6.438,-4.646911621
6.439,-5.356018066
6.44,-6
6.441,-8.250854492
6.442,-9.893737793
6.443,-10.52166748
6.444,-10
6.445,-10.20526123
6.446,-9.426757813
6.447,-7.895751953
6.448,-6
6.449,-5.827697754
6.45,-5.522521973
6.451,-4.922668457
6.452,-4
6.453,-4.606323242
6.454,-4.91998291
6.455,-4.993469238
6.456,-5
6.457,-6.789733887
6.458,-8.275512695
6.459,-9.080200195
6.46,-9
6.461,-9.776489258
6.462,-9.569946289
6.463,-8.522949219
6.464,-7
6.465,-7.117492676
6.466,-7.068603516
6.467,-6.714599609
6.468,-6
6.469,-6.701782227
6.47,-6.907287598
6.471,-6.609741211
6.472,-6
6.473,-7.044311523
6.474,-7.832214355
6.475,-8.175537109
6.476,-8
6.477,-9.070617676
6.478,-9.433105469
6.479,-9.028198242
6.48,-8
6.481,-8.305847168
6.482,-8.091064453
6.483,-7.289550781
6.484,-6
6.485,-6.166320801
6.486,-6.007324219
6.487,-5.563659668
6.488,-5
6.489,-6.216430664
6.49,-7.242675781
6.491,-7.859863281
6.492,-8
6.493,-9.456176758
6.494,-10.29473877
6.495,-10.44506836
6.496,-10
6.497,-10.83752441
6.498,-11.00897217
6.499,-10.37487793
6.5,-9
6.501,-8.848510742
6.502,-8.194824219
6.503,-7.162841797
6.504,-6
6.505,-6.662719727
6.506,-7.196655273
6.507,-7.352233887
6.508,-7
6.509,-7.864624023
6.51,-7.981445313
6.511,-7.300720215
6.512,-6
6.513,-6.093933105
6.514,-5.782836914
6.515,-5.045898438
6.516,-4
6.517,-4.585266113
6.518,-4.955871582
6.519,-5.069458008
6.52,-5
6.521,-6.571899414
6.522,-7.747314453
6.523,-8.256774902
6.524,-8
6.525,-8.770385742
6.526,-8.656066895
6.527,-7.658081055
6.528,-6
6.529,-5.755371094
6.53,-5.15612793
6.531,-4.202087402
6.532,-3
6.533,-3.455383301
6.534,-3.649108887
6.535,-3.477478027
6.536,-3
6.537,-4.106079102
6.538,-4.872375488
6.539,-5.167602539
6.54,-5
6.541,-6.20513916
6.542,-6.819519043
6.543,-6.724365234
6.544,-6
6.545,-6.602844238
6.546,-6.668273926
6.547,-6.122680664
6.548,-5
6.549,-5.136291504
6.55,-4.541625977
6.551,-3.107910156
6.552,-1
6.553,-0.345825195
6.554,0.480529785
6.555,1.320129395
6.556,2
6.557,0.707885742
6.558,-0.340576172
6.559,-0.664733887
6.56,0
6.561,-0.114685059
6.562,0.828125
6.563,2.661743164
6.564,5
6.565,5.675109863
6.566,6.498901367
6.567,7.599060059
6.568,9
6.569,8.835876465
6.57,8.982543945
6.571,9.424743652
6.572,10
6.573,8.796386719
6.574,7.869995117
6.575,7.547851563
6.576,8
6.577,7.452392578
6.578,7.822509766
6.579,9.081970215
6.58,11
6.581,11.53613281
6.582,12.53991699
6.583,14.07171631
6.584,16
6.585,16.26959229
6.586,16.58898926
6.587,16.86968994
6.588,17
6.589,15.23272705
6.59,13.83856201
6.591,13.33905029
6.592,14
6.593,13.99768066
6.594,15.06591797
6.595,16.90179443
6.596,19
6.597,19.13470459
6.598,19.17150879
6.599,19.38018799
6.6,20
6.601,19.39276123
6.602,19.59088135
6.603,20.57659912
6.604,22
6.605,21.60693359
6.606,21.0960083
6.607,20.52349854
6.608,20
6.609,17.92077637
6.61,16.56970215
6.611,16.27325439
6.612,17
6.613,16.65808105
6.614,16.87609863
6.615,17.41955566
6.616,18
6.617,16.6741333
6.618,15.52172852
6.619,14.89862061
6.62,15
6.621,14.07452393
6.622,14.03222656
6.623,14.78289795
6.624,16
6.625,15.55712891
6.626,15.3034668
6.627,15.40612793
6.628,16
6.629,15.41571045
6.63,15.73858643
6.631,17.03015137
6.632,19
6.633,19.40075684
6.634,19.7979126
6.635,20.03222656
6.636,20
6.637,18.01599121
6.638,16.38989258
6.639,15.63183594
6.64,16
6.641,15.7322998
6.642,16.66131592
6.643,18.5737915
6.644,21
6.645,21.66625977
6.646,22.24682617
6.647,22.71124268
6.648,23
6.649,21.30560303
6.65,19.6663208
6.651,18.24182129
6.652,17
6.653,14.08666992
6.654,11.49694824
6.655,9.436218262
6.656,8
6.657,5.478515625
6.658,3.939025879
6.659,3.501464844
6.66,4
6.661,3.344116211
6.662,3.217346191
6.663,3.496276855
6.664,4
6.665,2.84967041
6.666,2.06262207
6.667,1.806213379
6.668,2
6.669,0.62677002
6.67,-0.596313477
6.671,-1.768493652
6.672,-3
6.673,-5.99621582
6.674,-8.458129883
6.675,-9.87310791
6.676,-10
6.677,-10.66278076
6.678,-10.14080811
6.679,-8.753173828
6.68,-7
6.681,-7.048156738
6.682,-7.027404785
6.683,-6.719177246
6.684,-6
6.685,-6.639709473
6.686,-6.750488281
6.687,-6.437438965
6.688,-6
6.689,-7.45123291
6.69,-8.799865723
6.691,-9.729370117
6.692,-10
6.693,-11.2364502
6.694,-11.41278076
6.695,-10.55273438
6.696,-9
6.697,-8.960510254
6.698,-8.771484375
6.699,-8.448547363
6.7,-8
6.701,-9.125793457
6.702,-9.737487793
6.703,-9.65637207
6.704,-9
6.705,-9.797363281
6.706,-10.35723877
6.707,-10.73913574
6.708,-11
6.709,-12.79718018
6.71,-13.92352295
6.711,-14.00775146
6.712,-13
6.713,-12.86981201
6.714,-12.07745361
6.715,-10.97991943
6.716,-10
6.717,-11.08105469
6.718,-12.19689941
6.719,-12.92871094
6.72,-13
6.721,-14.03405762
6.722,-14.22137451
6.723,-13.74578857
6.724,-13
6.725,-14.00964355
6.726,-14.8762207
6.727,-15.28729248
6.728,-15
6.729,-15.6427002
6.73,-15.26025391
6.731,-13.92108154
6.732,-12
6.733,-11.74316406
6.734,-11.47869873
6.735,-11.21343994
6.736,-11
6.737,-12.75
6.738,-14.42773438
6.739,-15.8480835
6.74,-17
6.741,-19.88397217
6.742,-22.35253906
6.743,-24.09631348
6.744,-25
6.745,-27.15332031
6.746,-28.52770996
6.747,-29.08099365
6.748,-29
6.749,-30.63342285
6.75,-32.04815674
6.751,-33.15563965
6.752,-34
6.753,-36.7131958
6.754,-39.31817627
6.755,-41.73095703
6.756,-44
6.757,-48.01513672
6.758,-51.64654541
6.759,-54.45135498
6.76,-56
6.761,-57.63012695
6.762,-56.89202881
6.763,-53.33728027
6.764,-47
6.765,-40.05963135
6.766,-31.37890625
6.767,-21.75378418
6.768,-12
6.769,-4.29675293
6.77,3.360290527
6.771,11.58770752
6.772,21
6.773,30.33691406
6.774,41.82983398
6.775,55.71643066
6.776,72
6.777,88.88232422
6.778,108.192749
6.779,129.5941162
6.78,152
6.781,171.9677734
6.782,189.612915
6.783,203.7314453
6.784,214
6.785,219.4552002
6.786,223.4389648
6.787,227.0904541
6.788,230
6.789,228.2720947
6.79,220.7000732
6.791,204.7896729
6.792,180
6.793,146.9819336
6.794,112.5794678
6.795,82.57824707
6.796,61
6.797,46.73913574
6.798,38.76959229
6.799,32.13354492
6.8,22
6.801,4.364807129
6.802,-17.4675293
6.803,-38.98925781
6.804,-55
6.805,-63.64355469
6.806,-62.52758789
6.807,-54.16888428
6.808,-43
6.809,-34.97857666
6.81,-30.42590332
6.811,-29.05126953
6.812,-29
6.813,-29.88092041
6.814,-28.4241333
6.815,-24.68023682
6.816,-20
6.817,-17.82910156
6.818,-17.11987305
6.819,-17.75952148
6.82,-19
6.821,-21.72998047
6.822,-23.13708496
6.823,-23.06396484
6.824,-22
6.825,-22.43969727
6.826,-22.48291016
6.827,-22.04150391
6.828,-21
6.829,-21.17236328
6.83,-20.37097168
6.831,-18.81286621
6.832,-17
6.833,-17.21380615
6.834,-17.39349365
6.835,-17.35546875
6.836,-17
6.837,-18.08093262
6.838,-18.57543945
6.839,-18.47875977
6.84,-18
6.841,-19.11645508
6.842,-19.90740967
6.843,-20.21447754
6.844,-20
6.845,-21.00604248
6.846,-21.36108398
6.847,-20.98486328
6.848,-20
6.849,-20.3394165
6.85,-20.26104736
6.851,-19.7677002
6.852,-19
6.853,-19.86419678
6.854,-20.53198242
6.855,-20.90856934
6.856,-21
6.857,-22.54187012
6.858,-23.5112915
6.859,-23.67401123
6.86,-23
6.861,-23.32775879
6.862,-22.86346436
6.863,-21.67156982
6.864,-20
6.865,-19.86114502
6.866,-19.49182129
6.867,-18.84979248
6.868,-18
6.869,-18.7678833
6.87,-19.24798584
6.871,-19.31695557
6.872,-19
6.873,-20.09881592
6.874,-20.68334961
6.875,-20.628479
6.876,-20
6.877,-20.69799805
6.878,-20.91717529
6.879,-20.64660645
6.88,-20
6.881,-20.82849121
6.882,-21.19195557
6.883,-20.91571045
6.884,-20
6.885,-20.29504395
6.886,-19.99755859
6.887,-19.15600586
6.888,-18
6.889,-18.52111816
6.89,-18.91638184
6.891,-19.08325195
6.892,-19
6.893,-20.39752197
6.894,-21.27307129
6.895,-21.45697021
6.896,-21
6.897,-21.80419922
6.898,-22.06835938
6.899,-21.7689209
6.9,-21
6.901,-21.60083008
6.902,-21.66540527
6.903,-21.09326172
6.904,-20
6.905,-20.35784912
6.906,-20.44641113
6.907,-20.29864502
6.908,-20
6.909,-21.28979492
6.91,-22.06719971
6.911,-22.00030518
6.912,-21
6.913,-20.93164063
6.914,-20.09393311
6.915,-18.67352295
6.916,-17
6.917,-17.07904053
6.918,-17.04180908
6.919,-16.69873047
6.92,-16
6.921,-16.75091553
6.922,-17.13165283
6.923,-17.16583252
6.924,-17
6.925,-18.45349121
6.926,-19.47302246
6.927,-19.70898438
6.928,-19
6.929,-19.12713623
6.93,-18.3324585
6.931,-16.81750488
6.932,-15
6.933,-15.01977539
6.934,-15.11877441
6.935,-15.14916992
6.936,-15
6.937,-16.32995605
6.938,-17.13757324
6.939,-17.31549072
6.94,-17
6.941,-18.14508057
6.942,-18.9274292
6.943,-19.22644043
6.944,-19
6.945,-19.97320557
6.946,-20.15979004
6.947,-19.44958496
6.948,-18
6.949,-17.85919189
6.95,-17.38427734
6.951,-16.69915771
6.952,-16
6.953,-17.15466309
6.954,-18.18890381
6.955,-18.8425293
6.956,-19
6.957,-20.37854004
6.958,-21.0335083
6.959,-20.87475586
6.96,-20
6.961,-20.2946167
6.962,-19.90026855
6.963,-18.75701904
6.964,-17
6.965,-16.6151123
6.966,-15.9041748
6.967,-14.96636963
6.968,-14
6.969,-14.88476563
6.97,-15.65618896
6.971,-16.06207275
6.972,-16
6.973,-17.2142334
6.974,-17.79516602
6.975,-17.6875
6.976,-17
6.977,-17.59295654
6.978,-17.52947998
6.979,-16.65002441
6.98,-15
6.981,-14.52227783
6.982,-13.54473877
6.983,-12.2600708
6.984,-11
6.985,-11.77105713
6.986,-12.68634033
6.987,-13.49078369
6.988,-14
6.989,-15.82788086
6.99,-16.95758057
6.991,-17.29211426
6.992,-17
6.993,-18.08795166
6.994,-18.79821777
6.995,-19.09161377
6.996,-19
6.997,-20.28631592
6.998,-20.96124268
6.999,-20.85198975
7,-20
7.001,-20.30407715
7.002,-20.00012207
7.003,-19.1541748
7.004,-18
7.005,-18.53240967
7.006,-18.94433594
7.007,-19.12072754
7.008,-19
7.009,-20.24212646
7.01,-20.75689697
7.011,-20.32116699
7.012,-19
7.013,-18.79638672
7.014,-18.08654785
7.015,-17.06256104
7.016,-16
7.017,-16.82269287
7.018,-17.57666016
7.019,-18.00494385
7.02,-18
7.021,-19.31604004
7.022,-20.07019043
7.023,-20.24841309
7.024,-20
7.025,-21.20471191
7.026,-21.90148926
7.027,-21.85888672
7.028,-21
7.029,-21.12145996
7.03,-20.39398193
7.031,-18.91156006
7.032,-17
7.033,-16.78063965
7.034,-16.55096436
7.035,-16.28533936
7.036,-16
7.037,-17.42932129
7.038,-18.53289795
7.039,-19.07183838
7.04,-19
7.041,-20.11737061
7.042,-20.51373291
7.043,-20.10491943
7.044,-19
7.045,-19.15710449
7.046,-18.8112793
7.047,-18.02001953
7.048,-17
7.049,-17.74578857
7.05,-18.41534424
7.051,-18.86212158
7.052,-19
7.053,-20.49554443
7.054,-21.25726318
7.055,-21.06774902
7.056,-20
7.057,-20.08581543
7.058,-19.67266846
7.059,-18.90826416
7.06,-18
7.061,-18.8145752
7.062,-19.28894043
7.063,-19.07269287
7.064,-18
7.065,-17.85632324
7.066,-16.83587646
7.067,-15.0892334
7.068,-13
7.069,-12.73553467
7.07,-12.55865479
7.071,-12.35119629
7.072,-12
7.073,-13.13848877
7.074,-13.63342285
7.075,-13.24145508
7.076,-12
7.077,-11.88256836
7.078,-11.13067627
7.079,-9.785888672
7.08,-8
7.081,-7.693115234
7.082,-6.960449219
7.083,-5.698059082
7.084,-4
7.085,-3.83984375
7.086,-3.439880371
7.087,-2.799316406
7.088,-2
7.089,-2.84753418
7.09,-3.28125
7.091,-3.020385742
7.092,-2
7.093,-2.098571777
7.094,-1.539428711
7.095,-0.422363281
7.096,1
7.097,0.734924316
7.098,0.691955566
7.099,1.084838867
7.1,2
7.101,1.646118164
7.102,1.907897949
7.103,2.767578125
7.104,4
7.105,3.583618164
7.106,3.360351563
7.107,3.477478027
7.108,4
7.109,3.185119629
7.11,3.036010742
7.111,3.676513672
7.112,5
7.113,5.02746582
7.114,5.558166504
7.115,6.594482422
7.116,8
7.117,7.828063965
7.118,7.928833008
7.119,8.351196289
7.12,9
7.121,7.981201172
7.122,7.227600098
7.123,6.893737793
7.124,7
7.125,5.743713379
7.126,5.108642578
7.127,5.221130371
7.128,6
7.129,5.488037109
7.13,5.509460449
7.131,6.060852051
7.132,7
7.133,6.391357422
7.134,6.143859863
7.135,6.364685059
7.136,7
7.137,6.147827148
7.138,5.691345215
7.139,5.67590332
7.14,6
7.141,4.768371582
7.142,3.942565918
7.143,3.685119629
7.144,4
7.145,3.03112793
7.146,2.702575684
7.147,3.067871094
7.148,4
7.149,3.540100098
7.15,3.555236816
7.151,4.084472656
7.152,5
7.153,4.33215332
7.154,3.931396484
7.155,3.841125488
7.156,4
7.157,2.581665039
7.158,1.647644043
7.159,1.438964844
7.16,2
7.161,1.456420898
7.162,1.673950195
7.163,2.601867676
7.164,4
7.165,3.818847656
7.166,3.89630127
7.167,4.303161621
7.168,5
7.169,4.130310059
7.17,3.646179199
7.171,3.63470459
7.172,4
7.173,2.81628418
7.174,2.012390137
7.175,1.730712891
7.176,2
7.177,1.033081055
7.178,0.848327637
7.179,1.55480957
7.18,3
7.181,3.103637695
7.182,3.56036377
7.183,4.253295898
7.184,5
7.185,3.922973633
7.186,3.076416016
7.187,2.738464355
7.188,3
7.189,2.038146973
7.19,1.740722656
7.191,2.109375
7.192,3
7.193,2.507446289
7.194,2.610229492
7.195,3.465454102
7.196,5
7.197,5.190063477
7.198,5.713745117
7.199,6.396118164
7.2,7
7.201,5.650390625
7.202,4.471557617
7.203,3.858764648
7.204,4
7.205,3.087097168
7.206,2.916015625
7.207,3.322814941
7.208,4
7.209,2.96484375
7.21,2.253723145
7.211,2.208068848
7.212,3
7.213,2.815307617
7.214,3.43536377
7.215,4.636413574
7.216,6
7.217,5.40020752
7.218,4.720397949
7.219,4.200683594
7.22,4
7.221,2.40637207
7.222,1.389038086
7.223,0.975219727
7.224,1
7.225,-0.465270996
7.226,-1.421813965
7.227,-1.623901367
7.228,-1
7.229,-1.419067383
7.23,-1.091552734
7.231,-0.174743652
7.232,1
7.233,0.373840332
7.234,-0.139160156
7.235,-0.307861328
7.236,0
7.237,-0.956237793
7.238,-1.228149414
7.239,-0.828735352
7.24,0
7.241,-0.788391113
7.242,-1.318237305
7.243,-1.421813965
7.244,-1
7.245,-1.768493652
7.246,-1.695068359
7.247,-0.701660156
7.248,1
7.249,1.279724121
7.25,1.797973633
7.251,2.432067871
7.252,3
7.253,1.619689941
7.254,0.326965332
7.255,-0.595397949
7.256,-1
7.257,-2.589538574
7.258,-3.324768066
7.259,-3.086486816
7.26,-2
7.261,-2.076171875
7.262,-1.543334961
7.263,-0.455505371
7.264,1
7.265,0.846313477
7.266,0.945495605
7.267,1.35760498
7.268,2
7.269,0.982543945
7.27,0.239318848
7.271,-0.090698242
7.272,0
7.273,-1.290527344
7.274,-1.955566406
7.275,-1.841186523
7.276,-1
7.277,-1.370605469
7.278,-1.122436523
7.279,-0.274291992
7.28,1
7.281,0.72253418
7.282,0.767456055
7.283,1.214782715
7.284,2
7.285,1.221679688
7.286,0.780822754
7.287,0.739685059
7.288,1
7.289,-0.35369873
7.29,-1.383178711
7.291,-1.938903809
7.292,-2
7.293,-3.378234863
7.294,-4.060546875
7.295,-3.908081055
7.296,-3
7.297,-3.318481445
7.298,-3.051940918
7.299,-2.225402832
7.3,-1
7.301,-1.338256836
7.302,-1.328918457
7.303,-0.864501953
7.304,0
7.305,-0.656494141
7.306,-0.922241211
7.307,-0.698364258
7.308,0
7.309,-0.647644043
7.31,-0.595153809
7.311,0.321838379
7.312,2
7.313,2.354370117
7.314,3.06817627
7.315,4.007873535
7.316,5
7.317,4.192810059
7.318,3.730651855
7.319,3.967468262
7.32,5
7.321,4.878479004
7.322,5.315551758
7.323,6.113769531
7.324,7
7.325,6.055053711
7.326,5.45715332
7.327,5.683166504
7.328,7
7.329,7.588500977
7.33,9.198730469
7.331,11.51470947
7.332,14
7.333,14.38787842
7.334,14.51635742
7.335,14.64196777
7.336,15
7.337,13.95318604
7.338,13.58209229
7.339,13.98352051
7.34,15
7.341,14.62011719
7.342,14.75042725
7.343,15.5413208
7.344,17
7.345,17.21673584
7.346,18.03387451
7.347,19.37756348
7.348,21
7.349,20.86090088
7.35,20.88067627
7.351,21.24212646
7.352,22
7.353,21.30841064
7.354,21.09503174
7.355,21.378479
7.356,22
7.357,20.99169922
7.358,20.34552002
7.359,20.30639648
7.36,21
7.361,20.65441895
7.362,21.25323486
7.363,22.79718018
7.364,25
7.365,25.6428833
7.366,26.40570068
7.367,27.22131348
7.368,28
7.369,26.9105835
7.37,26.07409668
7.371,25.75970459
7.372,26
7.373,24.85247803
7.374,24.16986084
7.375,23.9286499
7.376,24
7.377,22.50164795
7.378,21.52264404
7.379,21.33557129
7.38,22
7.381,21.59716797
7.382,21.92608643
7.383,22.83355713
7.384,24
7.385,23.35125732
7.386,22.82843018
7.387,22.66320801
7.388,23
7.389,22.11297607
7.39,22.02008057
7.391,22.73565674
7.392,24
7.393,23.68041992
7.394,23.55493164
7.395,23.65979004
7.396,24
7.397,22.84082031
7.398,22.32818604
7.399,22.71343994
7.4,24
7.401,24.25488281
7.402,25.28436279
7.403,26.96911621
7.404,29
7.405,29.25323486
7.406,29.512146
7.407,29.78308105
7.408,30
7.409,28.33355713
7.41,26.84796143
7.411,25.73718262
7.412,25
7.413,22.7588501
7.414,20.97027588
7.415,19.73065186
7.416,19
7.417,16.93493652
7.418,15.54174805
7.419,14.93450928
7.42,15
7.421,13.72198486
7.422,12.87158203
7.423,12.36157227
7.424,12
7.425,9.867797852
7.426,8.003295898
7.427,6.671386719
7.428,6
7.429,4.237609863
7.43,3.36895752
7.431,3.38494873
7.432,4
7.433,3.046508789
7.434,2.242736816
7.435,1.567321777
7.436,1
7.437,-1.163269043
7.438,-2.713012695
7.439,-3.334106445
7.44,-3
7.441,-3.677856445
7.442,-3.621520996
7.443,-2.981323242
7.444,-2
7.445,-2.618164063
7.446,-2.781433105
7.447,-2.248901367
7.448,-1
7.449,-0.994567871
7.45,-0.495422363
7.451,0.280761719
